##NAMES=
##LOCALITY=
##RRUFFID=
##CHEMISTRY=
320, 4.740026066744576
321, 0.09175267285763766
322, -2.9304122825469676
323, -5.952502867687599
324, -5.8857898033370475
325, 3.2330509835205703
326, 17.635273288464305
327, 18.511836474336633
328, 6.290836607552592
329, 3.5016542877824577
330, 15.122254515086752
331, 30.0588984374931
332, 40.067925652435406
333, 51.01873215897285
334, 70.33920512332497
335, 92.44478585765091
336, 101.87759707359646
337, 100.39350984960674
338, 104.40366795603632
339, 116.03062964120727
340, 121.93723751663083
341, 117.05539518160595
342, 109.46948648734224
343, 105.83151365404183
344, 105.92920212954687
345, 109.36951026411998
346, 115.84021995718376
347, 124.1539392756049
348, 133.48228436995305
349, 137.19223938245432
350, 133.78154803780444
351, 128.19318366664038
352, 122.97401414930391
353, 120.69792485875132
354, 124.27907619833786
355, 129.77567257953115
356, 127.7258464576621
357, 119.38503866143219
358, 113.1836012450035
359, 110.25689178146285
360, 110.14197009158897
361, 112.57289911217913
362, 107.8893033519239
363, 90.02167438500737
364, 64.72232069474785
365, 39.86608156432203
366, 19.235900844546904
367, 15.196483444767637
368, 25.478339570458047
369, 33.98239559732292
370, 38.14878481464302
371, 35.094246718721934
372, 23.89413756321528
373, 12.369255024009817
374, 5.9100562117591835
375, 4.39888525661263
376, 6.641461072926177
377, 9.69361289005974
378, 6.254874678115357
379, -2.7855025353674137
380, -9.484695396401548
381, -12.952748050449145
382, -10.62815072004878
383, -1.3676043537811893
384, 5.082231092826532
385, 1.6266801117101295
386, -5.448949017270252
387, -7.812335094671198
388, -6.949309411653303
389, -6.388533950098463
390, -5.333082601009664
391, 1.553705545083858
392, 14.142682210652765
393, 13.079398189242283
394, -7.256917179963693
395, -22.202892598049857
396, -18.138581745257852
397, -4.041927911330504
398, 10.152621181645827
399, 22.669740439160705
400, 28.464144460612715
401, 27.50489416866776
402, 20.586676013010674
403, 9.23969242837802
404, 8.243558134111936
405, 20.50751595770089
406, 30.47349552369633
407, 31.164922657546867
408, 27.38113897062749
409, 23.491021949851074
410, 27.131006823844928
411, 48.09625490271446
412, 80.17413427728115
413, 111.2047570447653
414, 137.42443623149302
415, 140.78935262493178
416, 119.9437802705852
417, 103.50307109037703
418, 101.11074544300482
419, 107.19886002937938
420, 118.30551726292151
421, 132.31702011073912
422, 146.6922836601466
423, 156.99719790745576
424, 153.3936710222465
425, 140.28327567662382
426, 136.8801955461463
427, 142.86390538533124
428, 139.5981873260098
429, 123.69428910473289
430, 107.68575104168758
431, 96.47065003811304
432, 88.57872940653533
433, 82.97688180669229
434, 78.01927491652759
435, 71.5185737514098
436, 60.78832045653189
437, 39.4741713848598
438, 11.942451453111971
439, -1.042201661085528
440, 0.09034100824283087
441, 4.834855179821716
442, 11.026728531931894
443, 12.008935324104641
444, 5.457117168182322
445, -0.02302672720315968
446, 0.48630696608506696
447, 9.877999047815138
448, 31.64747839652
449, 54.93526467183028
450, 55.99628653832633
451, 38.80374433038833
452, 21.440937398051574
453, 7.083003056246753
454, 6.312088363290741
455, 20.14337338763835
456, 36.568260616747466
457, 51.586884959438976
458, 53.340669640839906
459, 35.17575529415785
460, 13.978172830354652
461, 6.364073539596802
462, 9.193613699296066
463, 15.313946371474003
464, 21.326998411405157
465, 17.748038761395946
466, 5.8555262339809815
467, -5.124165925570651
468, -13.696373873327047
469, -13.730067278342176
470, -4.153208608385057
471, 3.108983957164355
472, 3.3299625448701136
473, -0.22473202960509298
474, -5.411097041145695
475, -8.140560508645649
476, -3.3995457002069998
477, 5.400346602058562
478, 11.126552156535126
479, 12.039756729776855
480, 3.295212867258215
481, -11.658282660683653
482, -14.334642917461451
483, -3.1188250427342155
484, 14.531547043377032
485, 36.04632587484389
486, 45.422031810725
487, 36.45307956881015
488, 20.852234506455943
489, 6.066177395138766
490, -2.2805360648046644
491, 1.5438468924476183
492, 10.031398851418771
493, 9.332571259416454
494, 1.9436763146450176
495, -4.432163111303453
496, -9.434858953993398
497, -11.082764199749136
498, -9.26611929290948
499, -3.8889980632077368
500, 5.008655553404196
501, 10.490299628784669
502, 10.987001389879879
503, 20.031783100116627
504, 45.18471074357922
505, 75.1332990824294
506, 102.64957698256694
507, 122.82938198754664
508, 129.476053635884
509, 131.12997112287258
510, 144.6351768972877
511, 167.08206521012653
512, 188.39096025458366
513, 207.83572432506935
514, 225.2003024865735
515, 240.6247793820571
516, 255.37016242246773
517, 269.54144820462943
518, 281.02625622682035
519, 289.0317431225244
520, 289.6858839170159
521, 281.13240539516073
522, 261.2991508437849
523, 228.69807666887937
524, 198.3172889094394
525, 186.97185907789026
526, 182.63404280566692
527, 164.75048348415066
528, 137.54756846627924
529, 112.56298553964552
530, 90.48568344230398
531, 71.79381598096825
532, 56.301728288644426
533, 42.70663854749728
534, 35.09376318550858
535, 32.85342052665965
536, 35.55609070079754
537, 36.03249178427495
538, 33.15571033321339
539, 35.72042643381383
540, 48.11811331572699
541, 57.97847000040156
542, 56.16506385509865
543, 47.35758045739203
544, 36.743069036099314
545, 27.8717470496822
546, 26.50846555745693
547, 29.476242591728806
548, 29.22167011535589
549, 25.412306211913346
550, 17.959588561885084
551, 7.640857082192042
552, -1.0756806315134781
553, -6.858007731407497
554, 1.8247995653766793
555, 25.745021239251628
556, 37.70373633258146
557, 30.835476334890927
558, 17.227758063434294
559, 1.723654081334189
560, -8.347326942762948
561, -10.156853598339694
562, -5.357075384351219
563, 5.432318650746993
564, 13.880596805216783
565, 10.423233826377327
566, 1.9050355310912437
567, -1.2689501388988447
568, 0.2269427684184393
569, 5.174928339172311
570, 10.794580956762957
571, 9.389711137244603
572, 2.237076683272562
573, -3.920826469938447
574, -7.89053857036356
575, -5.175130770309806
576, 4.2394140201670325
577, 13.384990646226242
578, 19.946612647830307
579, 15.255881008477672
580, -1.8449088092461352
581, -7.295642742085647
582, 7.0794161099065605
583, 25.976002567260593
584, 41.26435065990563
585, 44.13059675319323
586, 28.709864740040985
587, 8.780266014483459
588, -3.2931064120618885
589, -7.207694592433654
590, -2.584545948795494
591, 5.100478421116122
592, 6.472979052033452
593, 3.696401107163865
594, 1.6250223235031171
595, 2.9929620393877485
596, 14.242424595003513
597, 30.514919774921054
598, 33.28693893220861
599, 22.54978226064918
600, 5.747625936640361
601, -12.87853723186845
602, -14.47337262904648
603, 1.0784944446627378
604, 9.60449588476672
605, 6.2290332641093755
606, 1.8082327770093798
607, -0.3832787857402309
608, -0.5399316912778431
609, 1.5306164382093357
610, 11.592194234743602
611, 31.57523052400734
612, 37.868249111852265
613, 17.209644971514763
614, -1.7330101902912247
615, 1.4151283384790077
616, 16.408238439244087
617, 33.49214968152478
618, 48.60704203528121
619, 57.03148209549545
620, 53.96318732922259
621, 32.40809666647283
622, 5.165131267525339
623, -4.591044649594323
624, -1.31953402324757
625, 5.450060954495484
626, 12.764605375114797
627, 11.27819148355411
628, 6.618449413573444
629, 19.397170292313376
630, 44.22400043420339
631, 56.20693179528325
632, 54.38981968841722
633, 46.57321195392001
634, 34.07977840962053
635, 18.638432606308697
636, 4.145992199047896
637, 17.653012903526133
638, 58.54519796348882
639, 75.03329055663608
640, 56.872223048263095
641, 32.3643238445718
642, 10.293871299976217
643, -0.5917364848164652
644, 2.594592716102852
645, 18.920584962702833
646, 46.607941564034945
647, 54.5120057939796
648, 28.671166752565114
649, 4.322161650762382
650, 1.1702326696445198
651, 8.848364771485876
652, 20.75516588637265
653, 28.755703204015845
654, 26.783382974866072
655, 19.670344589638944
656, 11.624304241765458
657, 9.201941406795413
658, 19.083942695349606
659, 30.31904114745089
660, 29.93234550602392
661, 19.45059807482062
662, 0.9853273590013032
663, -11.283534669904384
664, 3.26286088653751
665, 30.330290155814055
666, 42.34105868587267
667, 41.35115414600932
668, 32.4475702224629
669, 18.136879503282216
670, 3.664062738908342
671, -5.405262520490396
672, 3.6462106073288396
673, 21.293963787737766
674, 18.287260961416905
675, 0.8380038796753979
676, -7.092937645440543
677, -6.329612658197675
678, -2.34629881636738
679, 4.733051426522934
680, 14.853709059969788
681, 24.371986334551366
682, 18.71528030447689
683, 2.6482108492280076
684, 4.200483924418904
685, 22.950948637499096
686, 39.91952382300019
687, 52.1609749024708
688, 57.01268892692542
689, 54.35551072228759
690, 45.70098591652868
691, 33.275449202134496
692, 29.32755351847436
693, 33.832979097294356
694, 32.674145779960554
695, 24.090261469333655
696, 14.114447446423355
697, 4.887700575404551
698, 4.2269261839517185
699, 11.999033366746062
700, 14.534526184063225
701, 9.653952537538771
702, 4.09175169114269
703, 0.4974375187582609
704, 4.713730915429778
705, 18.00557618748985
706, 33.15953239178998
707, 47.04446965326315
708, 44.98337550135079
709, 25.61000488210243
710, 16.74482293618894
711, 26.88917644671642
712, 44.899367261816224
713, 66.82359535573141
714, 77.57438644196031
715, 73.26541195049845
716, 59.98482984397924
717, 41.290782234858625
718, 39.25586624701418
719, 58.655644986027255
720, 75.3024707962079
721, 81.7981629129763
722, 78.02055005417037
723, 64.61546370292103
724, 50.55329204230884
725, 39.02064022944069
726, 35.403254337310045
727, 40.0974739912067
728, 36.495506549808624
729, 20.920899617967734
730, 12.065783754690756
731, 16.17603504242561
732, 23.32519929324394
733, 30.167565831693082
734, 27.96597228505175
735, 14.849234939396865
736, -0.4026489437278542
737, -13.863090173101
738, -10.686361651880588
739, 11.671061380986885
740, 27.630791844404712
741, 29.85418054464958
742, 18.90940135941355
743, -2.7132349019634603
744, -11.784603404053541
745, -4.365351641176176
746, 8.65196527356261
747, 23.244133303601302
748, 25.349793067298833
749, 13.311412758950382
750, 1.2249021354689376
751, -6.558765051236378
752, -2.5833653447004963
753, 12.452340433361542
754, 17.892408683095937
755, 12.01262328888788
756, 11.649129993684255
757, 19.009769062352007
758, 28.068080621164654
759, 36.82226332336904
760, 39.753456957837216
761, 35.348108171808235
762, 20.27206837289191
763, -0.4213095169391181
764, 0.6038700660205905
765, 21.724879094486596
766, 38.309823902341805
767, 46.629188182583675
768, 43.66248773222992
769, 33.08687437729645
770, 30.055051684439604
771, 35.62077136333983
772, 48.37642217495477
773, 63.86028008068433
774, 68.49098940477347
775, 62.026640333998785
776, 46.560144592964434
777, 28.692411772607556
778, 24.966105448744656
779, 32.534250308520996
780, 34.72066049617524
781, 33.187666283570934
782, 32.5119871443635
783, 33.826079902717765
784, 38.954168589451
785, 47.22636602663101
786, 57.489888800161225
787, 65.22947726186567
788, 64.00578973396091
789, 61.268146684063595
790, 66.39047934144946
791, 73.25105306172554
792, 75.20148429885057
793, 72.71297695954604
794, 66.23434962176293
795, 58.96254889357988
796, 53.47137406938032
797, 53.966048806747494
798, 62.99703179800531
799, 61.68010011654019
800, 39.45345674938267
801, 15.06498694330321
802, -1.907840532699538
803, -8.410149289255287
804, -4.077572751504476
805, 4.729084677716173
806, 15.728267202247707
807, 19.638823746095568
808, 14.940853342799983
809, 14.540146980042664
810, 21.514162004815717
811, 33.07863729582891
812, 46.286087584760935
813, 45.77496535868113
814, 31.57698557287881
815, 18.869234146911822
816, 9.492101514493925
817, 1.6644631600381672
818, -3.8212138917667744
819, -4.5033254660133935
820, -1.233448898467259
821, 3.1773992019623165
822, 8.209905848889548
823, 11.700321237603248
824, 14.8237814290992
825, 20.1198934852805
826, 22.848292904595155
827, 15.092967473192402
828, 5.267326135992107
829, 5.217142584631347
830, 11.19964276305791
831, 18.690135302459794
832, 23.08670746320513
833, 20.661328310912722
834, 18.147616027090635
835, 19.878372908988922
836, 22.601986578986953
837, 24.599183405886833
838, 25.449293609346114
839, 24.6917282305742
840, 18.112039302186304
841, 6.545327028729389
842, 13.577787853160089
843, 40.27509404741568
844, 54.661521569637216
845, 50.88210274060157
846, 32.62563155469388
847, 5.4961922195459465
848, -8.510346321512316
849, -7.597115407419324
850, 10.88632642155153
851, 37.559510230322076
852, 45.96482230965535
853, 39.11013949478752
854, 25.572164190877857
855, 13.504385102705783
856, 14.952168680024442
857, 22.30730669228592
858, 26.703279502395844
859, 23.40028821984356
860, 8.598358461985526
861, -2.358524332156094
862, -0.19330061250730068
863, 9.495588108873562
864, 23.367994419453453
865, 31.465844329031597
866, 30.670370740020644
867, 26.224378898542
868, 21.062029537267335
869, 26.181095363021313
870, 40.17882912256232
871, 44.449807791576404
872, 38.15715730905367
873, 28.116336847007688
874, 17.67449320409719
875, 14.315186419053589
876, 14.613984517961171
877, 10.632490070514223
878, 4.375888977914656
879, -0.34238164561770645
880, -1.7200649155915926
881, 2.4934940812024706
882, 9.029055193258273
883, 14.769705392882543
884, 15.917691273924675
885, 10.923642201845496
886, 10.102335579259261
887, 16.797172739318285
888, 22.87935882654142
889, 25.010363788351015
890, 15.659781321395712
891, -1.2023911437861443
892, 1.1596810497999286
893, 20.858716134036513
894, 38.081116513222014
895, 48.13533091762474
896, 43.61171766901066
897, 26.53855607092487
898, 0.9916106033060714
899, -13.534630551904911
900, 4.480983363103178
901, 33.21565185964005
902, 53.09792696354384
903, 56.061002600645
904, 38.73633854001832
905, 22.006813361795366
906, 14.013855151669759
907, 15.924134123377371
908, 25.252969482726485
909, 24.048283096813748
910, 11.96498137906815
911, 1.0638157711393887
912, -3.6474441857917554
913, 7.551150067352637
914, 30.43137633441347
915, 52.46233375333236
916, 63.70304043681995
917, 51.43818283944324
918, 33.74011688977407
919, 26.067191126238185
920, 25.856550053377077
921, 31.251075880140206
922, 34.51472748214951
923, 33.42648686016946
924, 35.103183356176714
925, 39.44929816098829
926, 35.32658566580358
927, 24.157512197464712
928, 18.07689708539374
929, 14.178476708001654
930, 2.3880795075172045
931, -4.8924219059044844
932, 12.247804175531883
933, 29.144422549599085
934, 19.577256199934936
935, 5.566312500244976
936, 2.086021540776983
937, 9.705471192519099
938, 27.496341718575195
939, 43.28844796868907
940, 52.24792987895944
941, 45.203290244523714
942, 25.20679999418212
943, 9.932152805500664
944, 5.71805673846211
945, 20.97987001625006
946, 43.46294881100948
947, 54.31580272574388
948, 55.21336317705254
949, 48.15868973619558
950, 44.82577114801393
951, 51.30633502173555
952, 54.25628881147668
953, 49.42560701327966
954, 42.81945326140658
955, 36.81627728328294
956, 36.30670470827181
957, 41.573477973347735
958, 51.47296893209136
959, 54.876778216546654
960, 30.94789971381624
961, 2.241059788919756
962, -4.745714078457922
963, 2.385104487485023
964, 19.033385030840464
965, 30.052650309441105
966, 29.392324724872196
967, 17.86217250939967
968, -0.9946413867628507
969, -9.819525693142623
970, -9.225011204283419
971, -6.097034967686795
972, -2.9023131128906243
973, -3.6271602157501093
974, 3.777435862084076
975, 32.851021682941564
976, 54.851260712373005
977, 52.249575106032125
978, 37.9413315472425
979, 18.129159908237853
980, 3.719516586448435
981, -0.850927647364415
982, 11.275727178377792
983, 32.29823299360032
984, 39.09468127220293
985, 35.02962415066463
986, 27.24300789005588
987, 23.87755096475371
988, 31.43174752446089
989, 33.33597186795396
990, 22.236850543635455
991, 8.274343038362531
992, -2.9110091623006156
993, -1.5914875596547517
994, 13.263197355935745
995, 39.100494296993475
996, 65.26796209071063
997, 72.32835913733334
998, 70.2841067461195
999, 69.9285885621241
1000, 72.13026105675021
1001, 76.45506252158202
1002, 69.87811683171412
1003, 50.840838659629526
1004, 36.27241733352116
1005, 29.561188810543626
1006, 32.038025535537145
1007, 36.95197431259908
1008, 31.00681032170519
1009, 19.093165371465375
1010, 6.986189765612153
1011, 9.169911198302543
1012, 31.548045519193465
1013, 45.40798852874286
1014, 42.56423599428581
1015, 26.289302670913912
1016, 3.7609014730646777
1017, -3.5151581801749217
1018, 3.0639774089397633
1019, 20.210252164332132
1020, 31.8443113494111
1021, 24.068470835841936
1022, 14.040132273858717
1023, 10.232567081257685
1024, 13.703439808269877
1025, 22.70690889087996
1026, 27.384402445238948
1027, 27.991847199034055
1028, 28.575823633293112
1029, 27.059074986325413
1030, 20.3177187265901
1031, 12.261416062138323
1032, 5.511276658033239
1033, -1.8965394900624233
1034, -9.728839666780232
1035, -10.768067767071216
1036, -5.6097021305249655
1037, -0.743152348235526
1038, 1.596080274312726
1039, -2.4104836381952737
1040, -9.231580654137588
1041, -15.636084907469467
1042, -10.547256414135518
1043, 9.117264156833244
1044, 17.641487433906377
1045, 12.2279917287417
1046, 8.532691019716367
1047, 6.2841185233749
1048, 1.050294477613079
1049, -1.2229453638221912
1050, 5.384588116299938
1051, 2.049100654256108
1052, -18.536445117076028
1053, -29.439302272406167
1054, -26.1910645872415
1055, -19.6994658725348
1056, -11.005911182887075
1057, 0.15314938734513817
1058, 5.906651276665343
1059, -3.160524858023109
1060, 1.5923751940683815
1061, 34.104049932241196
1062, 61.875495998837096
1063, 84.12977401665262
1064, 134.3791707838534
1065, 200.98115287747214
1066, 266.88208364253387
1067, 339.6050856901934
1068, 427.9343964787247
1069, 506.2721062642047
1070, 563.4290062759935
1071, 624.9982257036143
1072, 695.6284816024504
1073, 766.2645539201831
1074, 825.57153637172
1075, 851.8651353937175
1076, 849.8424100402135
1077, 825.3294516590665
1078, 792.9148830175868
1079, 759.0284863321956
1080, 721.0111049515558
1081, 673.2032400546532
1082, 597.4003615393344
1083, 504.28004554362883
1084, 415.06544259752945
1085, 325.86984388573455
1086, 234.68470269850354
1087, 164.13591356441543
1088, 118.55790894612369
1089, 74.30524783873443
1090, 41.087330635027456
1091, 32.506734302648965
1092, 29.2287903823742
1093, 6.643383598539685
1094, -17.720638480516754
1095, -34.472883259666105
1096, -37.71034653881861
1097, -29.244388805673452
1098, -22.363673659147025
1099, -17.068337244963004
1100, -11.3027035981886
1101, -5.157564270833518
1102, 1.2860548901035145
1103, 6.56193425262677
1104, 8.856743021311331
1105, 2.8790114802329754
1106, -5.9653805555760755
1107, -2.993168565955102
1108, 14.29196878164953
1109, 46.83766892676931
1110, 59.75352032007481
1111, 39.29666982360345
1112, 16.23559694857363
1113, 1.1486465720133765
1114, 6.616321983510488
1115, 20.222539666527837
1116, 21.774431377554038
1117, 13.069884680577161
1118, -2.536088511754997
1119, -1.6533052798665722
1120, 17.524745291356794
1121, 34.54428567124819
1122, 39.05468269492121
1123, 16.325297231220247
1124, -9.08060355017733
1125, -18.653460475569545
1126, -5.136639534880487
1127, 26.98350927880233
1128, 36.395860101478775
1129, 27.70555071460467
1130, 22.195389184862506
1131, 25.723255734252916
1132, 41.81532733293443
1133, 54.31011507047788
1134, 58.41010665479507
1135, 59.97389036425375
1136, 60.51963189324056
1137, 61.50907506023418
1138, 67.34526230732172
1139, 80.88769970354247
1140, 81.3753402611851
1141, 65.34978045553498
1142, 57.061632436878654
1143, 53.30806793224747
1144, 38.51662532638602
1145, 22.909861034080905
1146, 16.155848801493676
1147, 17.56230078202975
1148, 24.629121928082668
1149, 37.21639594943099
1150, 46.90047429668516
1151, 35.63610593238468
1152, 15.088855176239804
1153, -3.7787727552115484
1154, -11.65807645716859
1155, -7.587404269871286
1156, 1.3978828401288865
1157, 9.007497902606929
1158, 3.1825138080757824
1159, 0.30786458450484133
1160, 10.980760767594347
1161, 20.636668793304125
1162, 24.10710112902143
1163, 18.034442902392357
1164, 6.891348350045973
1165, -0.6666989456805368
1166, 2.69654962263985
1167, 20.25234525315136
1168, 33.89960549565103
1169, 39.66836278598953
1170, 38.746544365877526
1171, 40.00927984588088
1172, 54.46955856301315
1173, 74.6811108299944
1174, 95.69629467390496
1175, 108.38333672222257
1176, 114.57412940160089
1177, 122.94426090046704
1178, 129.09237264635817
1179, 128.59180269993294
1180, 121.89610905245104
1181, 110.11383241941303
1182, 97.63283941229679
1183, 89.21406904216701
1184, 92.17308967695658
1185, 92.5861480541148
1186, 80.88782422195595
1187, 51.68371983638235
1188, 15.002703889651457
1189, 6.410829546455034
1190, 9.894704592447397
1191, 2.5901969190786076
1192, -3.788623884191793
1193, -5.490529720481845
1194, -5.437925326593586
1195, -0.12485063726512635
1196, 18.79836222900667
1197, 27.383460078447342
1198, 11.370941526490697
1199, 2.8153504984759365
1200, 8.343156410827987
1201, 20.321984839098604
1202, 27.62670153330555
1203, 18.09369957641684
1204, 9.118216713705124
1205, 8.536084750769305
1206, 18.395524248697257
1207, 32.51713132739292
1208, 38.207812722129574
1209, 26.564109777162912
1210, -3.614988995616841
1211, -11.526328738093525
1212, 3.3681275207211456
1213, 17.34060049279924
1214, 28.13610618977259
1215, 34.91425704486551
1216, 28.33109363350991
1217, 11.159192756935
1218, 10.054321745220932
1219, 16.824668673307315
1220, 14.239727498508728
1221, 10.82898213566773
1222, 10.483415270758769
1223, 9.344747312010668
1224, 8.492724885320285
1225, 11.709999404441987
1226, 9.99916088202076
1227, -1.037698941644976
1228, -0.5657865795333237
1229, 12.221933621164908
1230, 24.127822468773957
1231, 24.733117653020145
1232, 6.2279581288814825
1233, -5.944898092802987
1234, -5.50051088846385
1235, 1.1922102905343763
1236, 11.37800956180945
1237, 20.82745598801762
1238, 19.58971974738097
1239, 7.576854602478761
1240, 5.754149098769403
1241, 10.322215635840621
1242, 8.605835550844859
1243, 6.519069244079219
1244, 9.17548628166378
1245, 24.441585207847538
1246, 45.474936187929416
1247, 57.343895321045466
1248, 56.85603536620647
1249, 43.09064994739538
1250, 22.717841425371034
1251, 8.79678797477618
1252, 30.13834050178525
1253, 61.80671240207198
1254, 84.30948188754905
1255, 93.78204527764001
1256, 87.07852007754582
1257, 58.24933781676805
1258, 39.55523462543192
1259, 55.085143560758524
1260, 61.398842753306326
1261, 57.65940138641827
1262, 77.73943049036416
1263, 93.03688689980845
1264, 76.37258631489499
1265, 53.54551490184895
1266, 31.537770152232042
1267, 7.942399168386601
1268, 2.0805430782293115
1269, 29.213804381290856
1270, 49.454602715559076
1271, 51.24184110555552
1272, 37.39541435161709
1273, 24.473119493501144
1274, 28.392242396421125
1275, 36.647919906375364
1276, 41.80976599631799
1277, 32.3122470788403
1278, 18.97367685205336
1279, 13.932128201558953
1280, 21.194976306426497
1281, 34.875358810845
1282, 37.95434403501861
1283, 32.398417070823825
1284, 22.40751417865704
1285, 20.674594921512266
1286, 26.275073814456505
1287, 25.301153087498847
1288, 17.896679820349505
1289, 6.3315543578046345
1290, 4.988461050188562
1291, 12.844435427743065
1292, 16.981686173133653
1293, 12.232159775845957
1294, -2.553886346932927
1295, -6.799675403034826
1296, 0.8877534297611192
1297, 13.799911495688434
1298, 17.81770571127481
1299, 6.342984023356053
1300, -1.3773419439993404
1301, -2.5881332324293
1302, 0.7192582866202883
1303, 11.038111721303494
1304, 26.465419349466742
1305, 29.10656077896249
1306, 25.54506507860799
1307, 30.95123996774373
1308, 27.8495032878202
1309, 12.20842681417821
1310, 2.689138445725007
1311, -2.5095883257775995
1312, -8.925688334573806
1313, -4.8477873508819584
1314, 8.27483507389411
1315, 8.703609610210378
1316, 8.49145074643502
1317, 19.928849917184493
1318, 27.438018380467838
1319, 30.623987516893862
1320, 39.594676208054125
1321, 33.358525378447325
1322, 2.4470136393024404
1323, -10.648117725632005
1324, -6.616661877853062
1325, -0.037262285369934034
1326, 10.201195172158123
1327, 22.23621620406459
1328, 24.878340713373177
1329, 22.67083714213834
1330, 23.42695934729943
1331, 21.345617839176043
1332, 17.068169121507594
1333, 19.649068737597645
1334, 24.619576541331185
1335, 26.529961778031748
1336, 17.525628079009493
1337, 1.6103808779570272
1338, -7.838748407311073
1339, -5.220212227976276
1340, 9.297356309013253
1341, 15.21865724925783
1342, 11.65651996643885
1343, 2.394519089682831
1344, -2.3582014570872616
1345, 1.4765938768177875
1346, 17.25983857226197
1347, 30.714549471436044
1348, 31.28191164912107
1349, 33.54716171244115
1350, 39.40838702470228
1351, 45.753325334138594
1352, 42.383396958332696
1353, 27.69930902543831
1354, 18.053726429194057
1355, 13.872342316390586
1356, 13.132830953610437
1357, 14.58797885559693
1358, 14.779834460947313
1359, 5.77566401295644
1360, 7.296023996825284
1361, 28.13331633159521
1362, 43.421547310653295
1363, 49.14012932433582
1364, 45.58492215836657
1365, 39.56199310318391
1366, 35.97249232159595
1367, 42.367669974249225
1368, 45.727962185226374
1369, 37.46044944220603
1370, 29.700233156048853
1371, 29.149684240981287
1372, 42.11768176764076
1373, 47.09720071687593
1374, 36.830086899730645
1375, 16.043524342567707
1376, 2.3611960624965604
1377, 9.486518133708842
1378, 33.79044767279595
1379, 56.77377338814347
1380, 50.836229043973844
1381, 38.702024861645555
1382, 32.43150497026477
1383, 41.04462455429098
1384, 47.99752633179912
1385, 40.23337315077015
1386, 22.141022673731527
1387, 4.475527025110864
1388, 3.2151977734234833
1389, 9.676754222850263
1390, 17.902205342562752
1391, 16.84700573204225
1392, 17.0983569933195
1393, 25.87663164119442
1394, 39.11304934214559
1395, 50.311096727235736
1396, 51.48084436894294
1397, 43.31666681567424
1398, 31.115318268101873
1399, 27.371516433907004
1400, 16.109074693820276
1401, -6.766656807711229
1402, -17.369731643209207
1403, -14.032064460543893
1404, 1.9684671277569805
1405, 20.476836974313073
1406, 29.616730021166063
1407, 13.751486263413653
1408, 5.190029229620677
1409, 12.77210742668774
1410, 17.457052251345658
1411, 20.6775131796569
1412, 23.71328949707629
1413, 21.432567241062543
1414, 19.506600265542488
1415, 24.957536891166683
1416, 18.760929040488122
1417, 5.472103917984896
1418, 8.064103073358638
1419, 22.34160539309869
1420, 40.40368731490753
1421, 41.04551862015035
1422, 31.2961612162062
1423, 18.754199059907705
1424, 5.888582996819878
1425, 0.8456020395913129
1426, 11.131845677162119
1427, 16.346308310511745
1428, 20.263819792722074
1429, 43.126576835487526
1430, 56.62232320776127
1431, 49.16099608797356
1432, 26.893730494772967
1433, 2.6920224557717347
1434, -11.360868744925483
1435, -0.8220320240077399
1436, 18.116627919068492
1437, 22.557873865210695
1438, 12.166174283901796
1439, -1.4722145580643655
1440, 2.1390599154938172
1441, 16.47730582291888
1442, 29.36805284793843
1443, 16.41599691244494
1444, 1.5321867029643954
1445, -1.081651490637796
1446, 9.034221714608407
1447, 22.4866259807975
1448, 28.846325093658265
1449, 12.317172214561765
1450, -5.581970824698942
1451, 1.8531028782665544
1452, 11.439101590108066
1453, 14.961565750168916
1454, 9.86091356057284
1455, 14.242862801669958
1456, 26.503471386034448
1457, 26.860485250465103
1458, 24.094084414192253
1459, 18.9382537704887
1460, -2.32718428455064
1461, -7.372903430704014
1462, 15.929346524456264
1463, 18.969161446989347
1464, 12.603797555476035
1465, 11.68641307965595
1466, 5.972323600767709
1467, 4.988303782772505
1468, 20.726766252729135
1469, 32.21626901669072
1470, 36.41530706105175
1471, 37.277026444613966
1472, 37.6225686781529
1473, 38.32671832361052
1474, 39.47112087656876
1475, 45.42333648369686
1476, 51.378612075039996
1477, 38.35855928293063
1478, 23.357662432659936
1479, 14.751668830494282
1480, 6.826643375075605
1481, 8.713272619737495
1482, 21.351669485297066
1483, 18.70660707310958
1484, 16.004632669226794
1485, 27.4760617939221
1486, 43.16935985257078
1487, 47.71818071415419
1488, 28.92315977145722
1489, 7.126962851648045
1490, -4.8364331015169455
1491, 3.44463051819514
1492, 25.919876570829956
1493, 45.3526499847145
1494, 38.60405161181461
1495, 18.393216761591475
1496, 1.0440032412776645
1497, 8.269784759140634
1498, 12.104340527871614
1499, 7.275746272341621
1500, 2.9067534390551373
1501, -3.39337033426591
1502, -5.4508115765179355
1503, 14.738604412405834
1504, 24.716221705836574
1505, 19.497343980206892
1506, 25.46706218129009
1507, 24.698040131239168
1508, 12.778444552787278
1509, 5.007761927217871
1510, -1.8259949601772405
1511, -4.91594623749404
1512, 12.519201408199933
1513, 24.991898153175953
1514, 19.741465957976857
1515, 8.051490400046646
1516, 0.020496020502037027
1517, 1.0987694016515661
1518, 10.549203335420316
1519, 19.013738651977405
1520, 18.33300546061571
1521, 0.1465049441875408
1522, -7.407518124288572
1523, 5.006734091345379
1524, -2.0262380763058445
1525, -6.444429503581546
1526, 4.556934304409424
1527, 8.678202404203375
1528, 30.33208036653673
1529, 71.91789540677235
1530, 62.29082440514992
1531, 31.324819363656275
1532, 7.558373763841473
1533, -2.080967028499458
1534, -2.7798924854481584
1535, 0.01562760803437868
1536, 1.0166820965174566
1537, 4.992435068598866
1538, 13.918811972785761
1539, 21.80815531729536
1540, 19.278055412710387
1541, 4.125302529704982
1542, -10.474654505466447
1543, -13.384864961792346
1544, -4.29969277677742
1545, -3.3330960479272562
1546, 3.343256112553945
1547, 20.55797954085574
1548, 33.92427913772531
1549, 30.027960428022084
1550, 8.82706462259489
1551, -10.309695045681906
1552, -12.137687935470353
1553, 6.530743082645472
1554, 35.55049258217639
1555, 40.00179656215391
1556, 19.471438444102773
1557, 6.367608255373057
1558, -14.631295816167949
1559, -37.98685447472667
1560, -37.72311740458997
1561, -25.919729192364457
1562, -5.2578479101858875
1563, 24.569700692479614
1564, 40.62860444538592
1565, 51.728974420929035
1566, 81.66401569154016
1567, 140.34154246170021
1568, 199.38665464832332
1569, 233.0049273012338
1570, 253.149238406608
1571, 284.64515016424957
1572, 349.10921976811505
1573, 438.24650379680713
1574, 525.1229366347975
1575, 588.1363872550404
1576, 624.7516296941334
1577, 653.3391864384724
1578, 679.6320813833605
1579, 681.3090554404658
1580, 652.5705617147278
1581, 602.0753943427898
1582, 558.3036986022857
1583, 508.1771038508733
1584, 449.2901429863057
1585, 389.3897175390937
1586, 330.82638125516166
1587, 279.74539744388085
1588, 241.8684649713133
1589, 188.14338643784458
1590, 122.34224771386141
1591, 59.91138029841443
1592, 21.742760635336936
1593, 3.183031508902559
1594, -3.086352016408341
1595, -8.46908601904488
1596, -6.2836285134762875
1597, 4.672015453198128
1598, 10.747837805651784
1599, 0.23627892690979024
1600, -17.85190394972517
1601, -13.902073135733758
1602, 5.622772389967281
1603, 24.21960402701984
1604, 17.99005072751777
1605, -0.6721079424198706
1606, -13.149147313206527
1607, -6.314511926449313
1608, -0.08125712915500571
1609, 0.5537067859228273
1610, -4.6724563001322394
1611, -10.324989055582364
1612, -5.612433045268858
1613, 4.311301989202548
1614, -5.643895905320392
1615, 8.09230891191828
1616, 34.338384749414104
1617, 29.550916930564654
1618, 23.780105270521062
1619, 19.560442385288525
1620, 15.757019829459182
1621, 32.144136770843375
1622, 41.35911471192071
1623, 26.290098394542838
1624, 0.09465518591889577
1625, 1.9130280148452812
1626, 29.47569596300127
1627, 42.42565865903623
1628, 40.52441647706394
1629, 28.86342870830765
1630, 16.98652859591641
1631, 24.517413295604
1632, 31.933788858261323
1633, 22.998509555325654
1634, 3.280158427020865
1635, -1.0687173508636079
1636, 9.017372008746634
1637, 7.4399883536165135
1638, 1.587618146832824
1639, -4.863336222549719
1640, -7.586781960701728
1641, 13.065307703029816
1642, 23.33158169445403
1643, 6.098330443759323
1644, -4.704855662162117
1645, -6.523942841392454
1646, 0.31516067124005076
1647, 13.206061171009878
1648, 7.012525464346368
1649, -1.2590008877705259
1650, 7.916133444974207
##END=



