##NAMES=
##LOCALITY=
##RRUFFID=
##CHEMISTRY=
320, -51.37976984499437
321, -28.910674192482475
322, -8.856608764981502
323, -2.438871038839352
324, -2.6611857446732756
325, 1.6092873329962458
326, 7.535650081385029
327, 2.3300675864866207
328, -13.521806272716276
329, -19.008269837757325
330, -9.283740915338058
331, 2.5454461401295703
332, 9.936798618969988
333, 18.16491135430806
334, 33.792348407108875
335, 49.78524272221148
336, 44.00064051551453
337, 19.157681867985957
338, 1.699517436836686
339, -5.038784802074588
340, 0.2689835527398827
341, 18.869742349912485
342, 32.52211811802772
343, 26.05145025812635
344, 9.112321698330561
345, -0.9149326682181709
346, -4.812587558237283
347, -3.762716962273771
348, 2.2431279975062353
349, 13.652108707316074
350, 31.072327204821704
351, 36.88619488199947
352, 21.70005580398538
353, -0.5355756826884317
354, -14.530071338525886
355, -20.600380469928496
356, -16.796804002027784
357, -5.956903570140639
358, -3.821578623023015
359, -11.395128178408413
360, -14.930147512412077
361, -10.456182681971768
362, -7.674501552772199
363, -12.683230994512996
364, -18.140047352469992
365, -13.853392967694163
366, -4.073792189832602
367, -1.071088952036007
368, -4.352148146812397
369, -8.5051977044659
370, -12.32528718407957
371, -5.494708374833863
372, 16.165546285628807
373, 33.58818823540241
374, 33.8804951465936
375, 24.657048842882432
376, 16.150083789609198
377, 7.52060362208249
378, -2.350454696901579
379, -12.01860776587273
380, -7.651037983647257
381, 11.744156720877072
382, 17.72110133528986
383, 0.616245981240354
384, -18.06890842341818
385, -24.48620225538616
386, -25.205508317581916
387, -28.673536353011514
388, -33.51851482982602
389, -35.31980612138614
390, -34.7086273993591
391, -35.67194314306653
392, -38.16031177973491
393, -32.32002870255383
394, -14.674152460349433
395, 0.6867053531059355
396, 5.842414174512669
397, 1.4703541516046243
398, -12.670910330813058
399, -32.586474013824045
400, -47.61343798424605
401, -56.76382433733306
402, -52.13197398739612
403, -34.14984394521525
404, -19.942896522228693
405, -12.762577341014548
406, -9.302264079104134
407, -7.98969082982876
408, -8.916980058576883
409, -12.380205024985116
410, -15.757923389865027
411, -14.092376288914238
412, -8.559420706680612
413, -3.386822034663055
414, 2.5214074163632176
415, 15.91321032432279
416, 38.24721721795504
417, 56.728746009646784
418, 68.10283860345953
419, 73.54881429488705
420, 73.63732843510115
421, 72.11828862869879
422, 73.33728570883068
423, 75.62111765864938
424, 75.18986913502522
425, 70.5101034258114
426, 55.69139161933526
427, 31.377937267334346
428, 16.55925254655449
429, 13.904216174756584
430, 13.876321990848737
431, 12.853572980466197
432, 12.340110664183157
433, 13.41337170305087
434, 9.988531987208262
435, -6.506349739922371
436, -28.617870118117935
437, -36.844199330505944
438, -35.23291978062298
439, -41.135461028105055
440, -54.75361778484876
441, -58.41153190183468
442, -49.01726813037567
443, -39.77940099471925
444, -35.142392346324414
445, -20.57821602664444
446, 14.90930647985806
447, 49.04473220072214
448, 53.033444040866016
449, 40.50002937797035
450, 39.291207448914065
451, 45.631957115385376
452, 42.56605342714283
453, 31.222800087574797
454, 31.832116803048848
455, 46.57296586560915
456, 48.70523701136153
457, 29.56675688046198
458, 11.16508120790968
459, 5.082756546307792
460, 0.7600077981333015
461, -12.02793281904269
462, -25.350347368945222
463, -24.647483903054308
464, -15.147638320122496
465, -12.008148154978699
466, -15.213319526976193
467, -21.559819428621267
468, -30.908484937946923
469, -41.46359146346731
470, -53.02163051729076
471, -54.02494998770999
472, -39.584584760486905
473, -19.614308183701723
474, 0.34766577589289227
475, 12.113608612964526
476, 5.174572108478969
477, -11.632321246246647
478, -21.676812107800288
479, -25.64190189069268
480, -24.332822759040937
481, -17.92735447927953
482, -7.231472345716611
483, 6.96853209008259
484, 10.67380173681886
485, 1.5074009880154335
486, -0.14196435220401327
487, 13.831496775024789
488, 29.992494535108563
489, 40.5269129070839
490, 38.2505427784472
491, 14.206029903331
492, -19.036732595632202
493, -38.8152012988794
494, -45.17735630254538
495, -34.74427500374077
496, -12.028787587994884
497, 0.022848078375318437
498, 0.3162464373272087
499, -6.4510079357824
500, -19.738297953254005
501, -36.979635801151744
502, -58.086628125818606
503, -65.25110908146416
504, -49.397120203762825
505, -31.399207292257415
506, -26.923836069971003
507, -25.964294366282047
508, -16.346120703448833
509, -5.7178321088067605
510, -10.036783651978112
511, -19.528718616898914
512, -3.145515765534583
513, 33.95742150049227
514, 53.951412783611886
515, 56.33515350798007
516, 61.90078137850105
517, 74.03831589272158
518, 74.83910325074612
519, 58.818292687159555
520, 39.97639383566457
521, 23.840392357944438
522, 6.715022277978278
523, -14.607125629621805
524, -29.757550122589237
525, -26.226810936759648
526, -13.356130071055304
527, -6.424988388043857
528, -4.293892476967812
529, -4.919484199996077
530, -5.9070416122867755
531, 1.4722188179075602
532, 16.097535609011175
533, 24.23246162219948
534, 24.406906060792608
535, 17.504377518414913
536, 3.9863861513858865
537, -2.1461577103782474
538, 3.628711269773703
539, 12.534223050490255
540, 20.711822489853148
541, 28.019546729639842
542, 34.4793380090905
543, 36.66277693789743
544, 30.2720694459058
545, 22.237515119439195
546, 24.06337450564024
547, 27.599863241632193
548, 13.481131569635181
549, -10.16163923916065
550, -11.68500941021739
551, 6.175138231170422
552, 20.416182697539625
553, 28.690086175171018
554, 27.70787269133143
555, 17.17331550545532
556, 2.6403204321359226
557, -14.716326708945417
558, -20.94959513449612
559, -10.977822972699869
560, -0.24068341521706316
561, 3.4973455698545877
562, 0.39579392901396204
563, -10.016651499521686
564, -16.72143874878566
565, -7.3832419053287595
566, 8.032016880097217
567, 14.497947900737927
568, 12.110377245287964
569, -0.1577543164457893
570, -18.643318302385524
571, -31.263776805897578
572, -36.76234133282196
573, -29.23657750001439
574, -10.762061017288943
575, 1.970409585557718
576, 7.16730289352563
577, 2.849488256359109
578, -10.635474756625626
579, -19.80104365927218
580, -21.485115035544368
581, -18.079612055291364
582, -10.25098369423904
583, -3.2315096138845547
584, 0.6365632283086597
585, -1.0694149969276623
586, -10.385509435731365
587, -18.3303951383441
588, -16.802250267317504
589, -11.590974567132434
590, -9.436606784234755
591, -8.83834326487522
592, -7.6241476169216185
593, -6.164723044692437
594, -5.416026782786503
595, -3.566253954975764
596, 4.418079077426228
597, 16.32485518957037
598, 21.714264838959934
599, 21.22947746261343
600, 20.001450050509447
601, 18.41686262959047
602, 15.485407858750477
603, 11.01661462089396
604, 6.565086769347545
605, 2.092150884540388
606, -3.2805225077918294
607, -10.260167102242121
608, -20.35308664339209
609, -34.35994552246302
610, -39.714568326382505
611, -30.93442165517081
612, -24.522130262901555
613, -29.636408326186938
614, -31.386803471938038
615, -18.912152756976866
616, -3.7640877231388004
617, 3.923921385030553
618, 8.70166166812487
619, 15.444066232483237
620, 18.59101303168245
621, 9.355973113535583
622, -3.5427738738962944
623, -3.8781092087483557
624, 2.171740269430302
625, 0.8685834220977995
626, -7.835391011169122
627, -23.20261814236801
628, -37.56058585060964
629, -22.576841661979415
630, 16.111764914619926
631, 44.91173062086091
632, 61.066637811860346
633, 57.60878255822172
634, 35.47919375796664
635, 6.868547735579341
636, -24.90331777031679
637, -34.973462834694146
638, -21.780125181794574
639, -12.760896338066232
640, -12.98286048755108
641, -10.08585512909849
642, -0.6101272267296736
643, 9.682401956377362
644, 19.193444403937974
645, 21.981531374514816
646, 15.662432565468407
647, 3.2441719251055474
648, -14.438330116985526
649, -21.96139667595162
650, -10.856993207491541
651, -0.4555301462733041
652, -2.7618008882673166
653, -7.321068720233598
654, -6.6185921475807845
655, -5.146063050851808
656, -6.728660876862705
657, -5.708930895931189
658, 3.9408075928913604
659, 11.112731007046023
660, 2.2204058451661695
661, -10.165686536080102
662, -8.909078617587511
663, 2.0548773831906146
664, 17.349128362398915
665, 28.317683418390516
666, 18.28026320906247
667, -1.5887312724044023
668, -8.530034606985282
669, -5.774365140896407
670, -0.14156870796068688
671, 9.597688569881939
672, 26.695358324972403
673, 41.0016352085604
674, 21.183414855608135
675, -19.117227375179937
676, -30.935681728784402
677, -21.589797078580887
678, -22.764050146652153
679, -30.576773787141065
680, -21.491927300636235
681, -0.3798255701931339
682, 2.512057042620654
683, -7.877094805948218
684, 2.9257706953576417
685, 31.058552069431244
686, 35.36788735737355
687, 16.135671617568732
688, 0.8940776461186033
689, -7.591359461915999
690, -9.98797284232387
691, -6.685255859869358
692, 1.5475116459874698
693, 12.829973659785537
694, 11.542709672718047
695, -2.81030412875225
696, -12.158010267019563
697, -13.809375945878855
698, -9.641971606915831
699, -0.36552127941831714
700, 8.619549015982557
701, 15.823893012857297
702, 13.328385819739196
703, 1.2179047938734584
704, 0.3461387324387033
705, 12.873009756247484
706, 8.650005797724589
707, -17.349186313002065
708, -31.810138600771097
709, -27.92952595753013
710, -19.61485825154523
711, -9.693911586184186
712, 5.954638197412351
713, 27.454079872877628
714, 29.289751484064254
715, 6.469154306390919
716, -8.199161049655231
717, -6.7464565295449574
718, -1.2783502166348626
719, 4.763739189513217
720, 8.21831769741766
721, 8.041028948531675
722, 1.0940425332391897
723, -12.717469379676913
724, -14.283890590673764
725, 1.0513263158591144
726, 14.733872051225262
727, 21.98802913380132
728, 24.5443062561244
729, 22.6584387085677
730, 12.140991030761143
731, -7.414038189670464
732, -14.260509885489228
733, -3.9714509735495085
734, -1.0184110265254276
735, -11.16257572225004
736, -16.928108366086235
737, -14.326388531735574
738, -12.769149839616148
739, -14.05921744396801
740, -9.452838283194069
741, 1.9260701778766816
742, -0.42813829194710706
743, -19.468161182969197
744, -26.003460049438218
745, -14.422277553898311
746, -0.49819156779813056
747, 11.712754542500988
748, 12.295048198759105
749, 0.3145686199368356
750, -11.571220273695872
751, -20.013728447096582
752, -14.765454367907296
753, 3.6277239754672337
754, 11.847580943262074
755, 7.248402215995156
756, 0.14276490631164052
757, -6.345542113753254
758, -1.4635139628480829
759, 13.504171946971837
760, 18.12349397680191
761, 9.383759570797338
762, -13.19688583284369
763, -43.997275364597954
764, -47.503718752364875
765, -25.376413819320078
766, -4.952427658761735
767, 11.313080109799557
768, 21.363058346309117
769, 24.849072679293386
770, 18.52254835293752
771, 7.673010439337304
772, 12.803676862060456
773, 26.60404029802703
774, 20.30704621910263
775, 0.1582932294568309
776, -10.224607314003151
777, -13.162228743209198
778, -16.205795604169907
779, -16.556619710823725
780, -6.287599690736897
781, 7.92877676061471
782, 11.020708781838039
783, 7.884261185694413
784, 7.529922749676189
785, 12.235101697524442
786, 25.90391320749768
787, 37.40533199013407
788, 29.933382508004797
789, 12.069726980758787
790, -6.137591302225701
791, -18.40224588736055
792, -17.229360135967
793, -13.079931198441045
794, -15.317612474391353
795, -19.600240549287264
796, -22.668175773262192
797, -17.45868357972904
798, 1.366751162955552
799, 23.324911135872753
800, 42.79595051801698
801, 41.01065763604129
802, 8.900413878945983
803, -18.29288853680555
804, -26.71778572162657
805, -18.01163108747096
806, 6.3981353649214725
807, 22.054421765746156
808, 22.73703014279272
809, 15.30586481589853
810, 2.034180530523372
811, -8.411505727955955
812, -14.325710282324508
813, -12.74721752737969
814, -4.537420242464577
815, 2.1978103760520753
816, 7.267760736363925
817, 13.183877592369754
818, 19.175914441173518
819, 20.079650644258436
820, 15.429308643204422
821, 4.652874648945726
822, -12.347502108877961
823, -34.850080007052384
824, -49.24522222128144
825, -25.222991071244905
826, 13.024981661186757
827, 24.09394647303816
828, 18.202587599102117
829, 7.7325170819458435
830, -4.085533726272843
831, -13.97487407807057
832, -13.162060586762891
833, 6.19344126190299
834, 17.66797085278813
835, 4.449021006545081
836, -9.312949353517979
837, -11.786717801962368
838, -5.941022840208461
839, 6.916002360267157
840, 16.893725267182162
841, 20.433791047311388
842, 9.30582133111966
843, -15.788623976364761
844, -27.08653743415016
845, -21.92492361947916
846, -13.039535246736705
847, -3.1878810598464042
848, 1.810175414197147
849, 1.132663304795642
850, -7.103670843289365
851, -19.860914157641673
852, -28.17652133003503
853, -27.995972101363805
854, -10.633534259957742
855, 14.330528790103926
856, 31.82551410927954
857, 42.26773007537486
858, 45.3739806267331
859, 35.08218303252215
860, 5.224445468315025
861, -28.114118482099002
862, -55.5406347723474
863, -58.34104439760995
864, -28.872058481385466
865, -4.468357897487294
866, 3.6827703754534014
867, 6.707854917065561
868, 7.772534199737493
869, 7.429264419628453
870, 7.313780205749936
871, 15.57949437483694
872, 26.46325433216225
873, 11.887311039119595
874, -18.523080764502083
875, -29.258198190796975
876, -25.19628150591052
877, -18.396311947095455
878, -6.721185460466586
879, 13.75139019929702
880, 27.048966111713526
881, 15.224485423934311
882, -1.6046800597068795
883, -9.190878801708095
884, -14.3011799959786
885, -20.087601443703534
886, -14.648740651386106
887, 5.945373767046476
888, 26.384355809626868
889, 41.70384962755634
890, 38.25617459963178
891, 17.526175770353802
892, 1.2750612336731137
893, -9.107830950537391
894, -15.31026083557299
895, -15.83842017475763
896, -5.459061590438068
897, 6.395284083877414
898, 2.438915021268258
899, -7.0451227063604165
900, -9.88448011397486
901, -9.314060914188303
902, -7.570279231629684
903, -0.22170236639249197
904, 14.575737278462839
905, 14.344862254412874
906, -6.99912687044889
907, -18.71321780440303
908, -15.850154363519323
909, -14.96046350155575
910, -15.415049396364338
911, -2.296556112536564
912, 18.484288587897026
913, 23.44122401157074
914, 19.858521279194974
915, 23.861976567000966
916, 26.351566656919204
917, 14.433692195744698
918, -6.458574082809719
919, -32.24138209182911
920, -41.64381614900958
921, -23.409124004028854
922, -0.35445920078836934
923, 19.792523760539552
924, 32.72758811740732
925, 36.56723081232394
926, 22.491073369122205
927, -2.849935212001583
928, -6.128641170762421
929, 5.730609167477269
930, 9.079285908845122
931, 8.803317607500503
932, 14.211073481322273
933, 14.568196403973161
934, -1.7146220558142886
935, -14.61372604745975
936, -12.064103485604392
937, -12.496889315563749
938, -21.87877133613256
939, -19.06634381150343
940, -0.8621232469058668
941, 14.965960487442317
942, 23.319646142062993
943, 12.376268191734198
944, -10.133628212412987
945, -21.869899630675718
946, -22.969488292433198
947, -13.668728956457016
948, -0.30361828555032844
949, 11.356808089060905
950, 11.290607423710753
951, -5.181374272780886
952, -5.9427877280959365
953, 16.922199968362293
954, 26.602960645163876
955, 17.405602039872974
956, 0.1016989190966342
957, -19.577865102071883
958, -25.8293696545079
959, -18.94860601097207
960, 0.08813567855304427
961, 16.512893097701635
962, 13.100137767110937
963, 4.52573587495408
964, 0.08581546593268286
965, 0.8107000558129585
966, 5.957028914207513
967, 2.316127446495557
968, -11.58172972039938
969, -24.896038969804977
970, -32.78746995064648
971, -22.386922764879273
972, -4.372347577935216
973, -0.8315110532093968
974, -2.0784622315295564
975, 2.625800080188128
976, 6.9166393919867915
977, 7.2580118113110075
978, 10.637933726698975
979, 17.459901443138733
980, 7.016887925644369
981, -18.74858476974532
982, -27.40616859487818
983, -20.260497536244657
984, -8.950093117940014
985, 3.1727672916285883
986, 11.372117056385832
987, 14.064841211726161
988, 9.833680623244618
989, 9.90392635376702
990, 18.582225458841094
991, 19.333574790704006
992, 9.142853025159638
993, -1.776620090678989
994, -11.583478142205422
995, -17.61182203226963
996, -15.487829620225966
997, 3.746100998468137
998, 21.681326653454562
999, 19.12535978696087
1000, 6.593326381200313
1001, -9.896965694591017
1002, -15.420607103680595
1003, -6.9127781754914395
1004, 5.374924476359411
1005, 13.984139091436191
1006, -3.2979881669944007
1007, -30.539464270029384
1008, -32.49989601538891
1009, -17.673339710384425
1010, 5.3403303984114245
1011, 22.115366820203235
1012, 24.873410719951607
1013, 13.293526379972718
1014, -7.583246900526319
1015, -1.4238390869195428
1016, 24.950490874499337
1017, 30.019219930105464
1018, 18.309871073916838
1019, 1.5112634035340307
1020, -8.067304549426808
1021, 0.6019853350762787
1022, 7.125900110317161
1023, 2.22373151674401
1024, -10.008262031662525
1025, -25.789625229860576
1026, -28.27809479920961
1027, -17.57836301174848
1028, 1.425497645624091
1029, 16.635661725416867
1030, 10.765260653079167
1031, -2.3142379098489982
1032, -13.014232130311939
1033, -8.64436857079636
1034, 11.51044415396882
1035, 15.955372228238957
1036, 6.503345983779582
1037, 9.185700404550516
1038, 18.24091309540927
1039, 19.382499736838326
1040, 18.52859445426111
1041, 20.669329134059808
1042, 10.251478188725741
1043, -17.32886952899662
1044, -29.874467286587787
1045, -22.479546510308865
1046, -4.211914158505351
1047, 12.301844420720954
1048, -0.41261436840522947
1049, -22.11518926071858
1050, -30.342827408429002
1051, -29.537708426895733
1052, -21.999818912700903
1053, -11.708595811082887
1054, -2.7418092981952213
1055, -12.18802043197411
1056, -29.400604059107536
1057, -23.173757077181108
1058, -7.445568782727605
1059, 0.5108323220783859
1060, -0.8743822618480408
1061, -12.115970567137992
1062, -23.705719383878204
1063, -32.73749538874745
1064, -35.04904897463075
1065, -33.116201582297435
1066, -33.540269964709296
1067, -27.616708954757996
1068, -4.7849624597156435
1069, 23.531457398669772
1070, 51.34616608894157
1071, 66.07988915340593
1072, 65.62457313106006
1073, 51.93714451010965
1074, 34.291616491243076
1075, 32.87064290885519
1076, 39.26775595739855
1077, 45.14007158763343
1078, 47.49424538164021
1079, 44.5456268490052
1080, 33.013871289495
1081, 17.980236767222777
1082, 22.70727466980952
1083, 31.201071655150372
1084, 12.157640070182424
1085, -14.055580814731911
1086, -32.40640810451532
1087, -45.17243678437626
1088, -50.976713715508595
1089, -33.51145233647276
1090, -3.8650282674052505
1091, -1.675888443907752
1092, -12.62711397118801
1093, -16.901745317672066
1094, -17.683600723070413
1095, -16.513385280579314
1096, -12.034839793706851
1097, -5.353510352652847
1098, -3.458781974755766
1099, -7.862218672597919
1100, -20.633272349175968
1101, -28.043639131279633
1102, -19.471912636503475
1103, -12.4003676416105
1104, -11.040714339766964
1105, -3.819945869126059
1106, 6.123304471785559
1107, 4.856313401735861
1108, 0.28637470296052925
1109, 1.9577190952459205
1110, 1.0404999667571246
1111, -5.236789378956928
1112, -2.3087470877208034
1113, 8.107156000966825
1114, 8.72569458545695
1115, -0.19357565290283674
1116, -16.690161322865606
1117, -20.552874733662975
1118, -0.9848114246160549
1119, 14.244768006831691
1120, 17.457470188524894
1121, 5.493678239021392
1122, -13.583661011651202
1123, -23.908103027228208
1124, -16.159895775962468
1125, 14.890304423720409
1126, 26.980924307750684
1127, 12.445757599733952
1128, -0.37938347046929266
1129, -5.479829074214649
1130, 3.575731173325039
1131, 16.998650444197665
1132, 25.79893187700054
1133, 13.89273911557666
1134, -18.871368416200312
1135, -37.138157013508135
1136, -35.173095544812895
1137, -8.651038236288514
1138, 23.283325093753774
1139, 43.54553887986276
1140, 48.9857877910772
1141, 39.64322306233316
1142, 22.59362454382699
1143, 4.299983068481197
1144, -1.3737877801977447
1145, -3.831687463100934
1146, -10.912186748042586
1147, -6.09902424095435
1148, 10.92294558681624
1149, 7.173792208460327
1150, -11.324814752110797
1151, -21.79175866168407
1152, -25.19738397877427
1153, -22.424681072005114
1154, -11.73304150281092
1155, 4.173025135566604
1156, 6.538565823462704
1157, -1.218502045002424
1158, -8.598408808809836
1159, -6.026223165168631
1160, 11.788351953946403
1161, 17.429602344293926
1162, 6.472190283911914
1163, -7.1474552808649605
1164, -18.060292118499092
1165, -19.073233611594333
1166, -15.677559949775969
1167, -10.850059077688456
1168, -3.7733928819006906
1169, 4.498409332723895
1170, 8.813912238434568
1171, 16.38982566654522
1172, 36.193494804896545
1173, 36.50058527557667
1174, 7.763958397531496
1175, -9.642779724853426
1176, -11.220415417332333
1177, -1.3519617239799118
1178, 9.118040673093674
1179, 10.146873618019526
1180, -3.1941310675456407
1181, -28.50210417193921
1182, -42.781486393053456
1183, -38.89689554002052
1184, -7.4201461126476715
1185, 13.93204987428362
1186, 4.945059381234387
1187, 0.846188631271616
1188, 6.1393099053148035
1189, 9.035589076247561
1190, 11.642566209705365
1191, 16.485008742565697
1192, 1.6240893721551402
1193, -33.501412610376974
1194, -34.5426908696254
1195, -13.482393275071445
1196, -10.343260774697228
1197, -15.817063198221149
1198, -22.811761360936543
1199, -28.646193960861638
1200, -26.65071054713644
1201, 4.462728724171939
1202, 35.05154120864245
1203, 27.69768385493171
1204, 20.500630884891507
1205, 27.05251790141392
1206, 35.305959321165574
1207, 40.63132983477408
1208, 36.5534705579139
1209, 12.677764208036933
1210, -33.10943367445907
1211, -43.24326596405717
1212, -17.223715424941474
1213, 7.978547202785194
1214, 23.63061751312398
1215, 22.214268097036438
1216, 1.9987526096156216
1217, -28.161364668522765
1218, -21.555971341757868
1219, 1.7725340448187126
1220, 3.557844027494866
1221, -2.954749814148272
1222, -9.829440427676673
1223, -7.316956387877326
1224, -0.05083255030967848
1225, -1.9508139874742483
1226, -11.068503844858242
1227, -24.96456920658693
1228, -31.033797906084146
1229, -22.347136643044905
1230, 13.785702649249288
1231, 34.50896674649448
1232, -0.4379387847857288
1233, -24.701167956144673
1234, -22.79992634095197
1235, -15.986787364769953
1236, -5.924420426315919
1237, 7.023238569048772
1238, -3.0103223208279815
1239, -34.949028437978995
1240, -23.034742692168038
1241, 16.113875456822825
1242, 40.15527947461578
1243, 40.67388877371013
1244, 16.753006086055393
1245, -6.001176026516987
1246, -16.882917847182398
1247, -0.8093535914904351
1248, 14.154353435316807
1249, 10.83001436950508
1250, -5.227729233536593
1251, -20.047450880825636
1252, -0.726722579140187
1253, 28.213917522698466
1254, 47.166392072430426
1255, 44.85278437476245
1256, 26.237155209376397
1257, 12.669838047169833
1258, 8.762112654567318
1259, 16.4531540794369
1260, 18.143441558010636
1261, 11.875061472419475
1262, 5.992416020879318
1263, 5.4909430082825565
1264, 13.464171527577491
1265, 11.246631121595783
1266, -2.6062534982293073
1267, -14.632627501550814
1268, -16.215800884246164
1269, -0.3833395613146422
1270, 12.839098020653182
1271, 18.64757931760323
1272, 19.724943686603183
1273, 18.517643494701588
1274, 17.028002453152112
1275, 13.544308454756901
1276, 5.548096415521286
1277, -13.331287947165947
1278, -25.982765751065926
1279, -15.763229551091172
1280, -5.993695907022811
1281, -1.7169092903941419
1282, 2.2947910094262625
1283, 3.159300495514799
1284, -2.0802015039480466
1285, -8.23903209799846
1286, -14.5709916770993
1287, -22.618646626250666
1288, -29.413502528981553
1289, -30.679179153825316
1290, -10.155554910134924
1291, 21.994327564138985
1292, 23.903232601382115
1293, 14.485857879733885
1294, 9.02730373230861
1295, 2.909691556211328
1296, -1.6092935072138062
1297, 4.0241659301773325
1298, 5.512769434843904
1299, -5.218943193469386
1300, -14.23227306382887
1301, -14.61466404060775
1302, 2.8052847940934953
1303, 9.4245198123499
1304, -6.714568970884102
1305, -20.153375644666085
1306, -23.85122578008577
1307, -11.954128233740448
1308, 3.112016820316967
1309, 14.160779735264441
1310, 11.365413206344783
1311, -5.091505164788032
1312, -32.03280279367482
1313, -30.039574321721375
1314, -1.3615817056270316
1315, -5.0935368490254405
1316, -17.547210507142154
1317, -12.689198472065982
1318, -7.436080651850716
1319, 0.23187120555667207
1320, 27.369570196072345
1321, 37.66306029204134
1322, 11.084030626902859
1323, -2.18242486536019
1324, -2.412625431986271
1325, -7.651555782183095
1326, -9.725775037964013
1327, -7.220420640508564
1328, -14.765158390043325
1329, -18.457326187393846
1330, 1.6806791854432959
1331, 11.785054184651926
1332, 4.932179592761713
1333, -3.2350593920373285
1334, -6.762387752181894
1335, -2.0776393636742796
1336, 3.052696845958053
1337, 8.21706453637671
1338, 16.093780204740142
1339, 18.119771312354715
1340, 12.193975176585809
1341, 14.369038131382695
1342, 12.44248713948491
1343, -13.074579235350939
1344, -27.839429700495202
1345, -24.664272185637856
1346, -19.663164642649463
1347, -7.023000366006272
1348, 16.3823243236875
1349, 20.927710611553266
1350, 10.278917769035615
1351, 4.546627459949377
1352, -1.1746258758012118
1353, -8.554287823432787
1354, -11.74398699035828
1355, -12.574063072088393
1356, -13.432105151109681
1357, -8.398148178938754
1358, 3.5410715333982807
1359, 19.982113000961363
1360, 26.80625966190928
1361, 16.866500867384275
1362, 2.7585822950040892
1363, -9.129306354366236
1364, -11.840642205859695
1365, -7.938092657464949
1366, 0.23141975728049147
1367, 7.61111922533928
1368, 14.85264087624273
1369, 21.258912350845094
1370, 15.853682740958902
1371, 2.20282875040175
1372, -9.980807788463608
1373, -11.504329282178333
1374, -0.9067745837128314
1375, 14.408076441317462
1376, 15.028555314635923
1377, -9.23181393160121
1378, -14.97416671443898
1379, -2.1225519314602934
1380, 14.923845368013644
1381, 16.520381861306305
1382, -1.745536449327119
1383, -28.387915102349325
1384, -34.605902418599726
1385, -4.529894527558099
1386, 12.340330586755954
1387, 13.4074416441008
1388, 8.291918443231225
1389, 1.035402843211159
1390, -3.9114451917848783
1391, 3.555364443765029
1392, 5.603274951228741
1393, -5.845756760473705
1394, -0.9254711875528301
1395, 10.276557143258287
1396, 7.500296692439406
1397, -6.4918321426994225
1398, -24.446585798424167
1399, -28.74656714507728
1400, -16.144266978326414
1401, 8.852152164770814
1402, 15.032927040121649
1403, 6.480470684235115
1404, -7.507753614640933
1405, -9.864310786426358
1406, -0.2573483074947944
1407, 13.712535259617653
1408, 7.7361856998159055
1409, -16.166420566252782
1410, -15.678375132222754
1411, -0.4674239112146097
1412, 18.02127540735728
1413, 22.779553973447946
1414, 14.44298169169997
1415, -1.9304274938340313
1416, -9.411404252075044
1417, -8.341120927503653
1418, -9.664437605581043
1419, -11.746350388429164
1420, -11.649753427903306
1421, -1.6377546320700276
1422, 12.469561980587969
1423, 22.515821708868316
1424, 7.215255139595683
1425, -14.940333718072907
1426, -14.637766081936206
1427, -5.003397090801627
1428, 9.323782419105555
1429, 24.832150382798318
1430, 9.267782543375688
1431, -33.76085981124561
1432, -37.74009085607122
1433, -22.448525360769054
1434, -5.874734221386461
1435, 6.934624634793181
1436, 10.344412170202304
1437, 0.8324922671226886
1438, 5.4708205245296995
1439, 19.531146401301157
1440, 22.594457219430296
1441, 12.747112974316224
1442, -1.9013348962771488
1443, 2.8920070259437125
1444, 2.5341657977314753
1445, -11.0696868767036
1446, -13.42663801825256
1447, -11.274982827821987
1448, -8.332110428736996
1449, 17.16985258493878
1450, 35.857225416731126
1451, 11.299468386088847
1452, -6.809809262590534
1453, -12.706633959872306
1454, -15.929812201713503
1455, -5.057494112796121
1456, 11.258047186224758
1457, 0.6656629208755476
1458, -9.251393145063957
1459, -7.5210251632061045
1460, -4.131270621862313
1461, 1.8869628464453854
1462, 8.420972201425684
1463, -1.7513407720307441
1464, -10.006805451183936
1465, 0.4008681883879035
1466, 8.85062786789149
1467, 7.130186759308344
1468, -8.86438767098025
1469, -15.022385577799469
1470, -10.875084610394879
1471, -4.922805236473323
1472, 11.642001235926728
1473, 27.571010581813425
1474, 10.836845383719265
1475, 6.174093942135187
1476, 17.57744982746135
1477, 0.5391729716684495
1478, -7.838559465486469
1479, 5.162358778874477
1480, 7.000248442730481
1481, 10.384064790764569
1482, 19.802012878399182
1483, 5.441065582326701
1484, -4.232768975838553
1485, 10.964468793571541
1486, 5.228711441692212
1487, -10.21777916566316
1488, -17.06703440074125
1489, -25.72863510776824
1490, -22.62210384322225
1491, 8.920103517953066
1492, 20.7863072917753
1493, 8.323922434465203
1494, -16.50159469807022
1495, -26.31125233846251
1496, -19.305547870361806
1497, -5.98688214487629
1498, 10.073044380357715
1499, 23.243348695114037
1500, 22.868600855376826
1501, 13.716855517936892
1502, 0.4695685029946617
1503, -9.157064787474155
1504, -9.395034330495946
1505, -1.5414779022839866
1506, 3.7919707226128594
1507, -3.248978336459004
1508, -20.886640862056993
1509, -28.57525150800211
1510, -12.000940624852774
1511, 19.89886160872993
1512, 11.55200424877421
1513, -5.114006006851923
1514, -8.277097450991278
1515, 7.870884488271258
1516, 32.37175583266526
1517, 48.004825880461794
1518, 12.871470511029656
1519, -26.007151715246437
1520, -37.00160806102576
1521, -23.138515746132725
1522, -6.682654764464132
1523, -0.6428449174263733
1524, 1.3220388872623516
1525, 6.360061243944074
1526, 14.215574836905944
1527, 3.7746605957008796
1528, -12.924676159862429
1529, -23.76794924936803
1530, -18.21561757192012
1531, -0.2480781935100822
1532, 20.44485774153509
1533, 15.142857076036307
1534, -0.9542388800400659
1535, -12.88621683821384
1536, -8.801736217247708
1537, -1.8296832071173412
1538, -1.281479150740779
1539, -6.717453659942294
1540, -19.05886388608633
1541, -29.02375382117225
1542, 2.087487966155095
1543, 23.48776244338478
1544, 14.941785389843972
1545, 20.091364174901173
1546, 16.0183899407657
1547, -3.639451263677074
1548, -10.173581249412564
1549, -14.113901680238996
1550, -14.041028873031792
1551, 12.97353765052776
1552, 30.012270123143935
1553, 21.531938194668328
1554, -5.919393592549568
1555, -17.469316834519304
1556, -7.6215733805220225
1557, 2.604068153690605
1558, 4.171288706404084
1559, -6.2989047786604715
1560, -27.895393787191097
1561, -31.231281088206742
1562, -18.767439861278945
1563, -11.159288447092877
1564, -5.778277941808483
1565, -2.0675309724492763
1566, -0.5411042451232788
1567, -0.5437542291001591
1568, -4.441738727015036
1569, -15.384950973922969
1570, -31.814849764334213
1571, -35.36129732324298
1572, -12.530189402754331
1573, 5.125093693517556
1574, 19.73964532327409
1575, 35.28227923672057
1576, 44.56453493412755
1577, 46.480298271080756
1578, 40.22161141378183
1579, 24.80586326008506
1580, 30.683238754293598
1581, 58.392365115529174
1582, 65.15014856263133
1583, 43.680877472741486
1584, 7.47334367205076
1585, -8.882250641609971
1586, -2.784239040333887
1587, 6.268223583546387
1588, -11.446021851878868
1589, -24.02845055929265
1590, -22.714691286739253
1591, -9.647567663908376
1592, -12.385581110351268
1593, -26.6614428859084
1594, -38.41932471384189
1595, -17.577762252616594
1596, 6.818727127431885
1597, 12.464348088368752
1598, -7.133412158300416
1599, -20.47918752602982
1600, -13.581174789812394
1601, 11.142555829261255
1602, 24.067842028212
1603, 17.53608965083049
1604, -4.104698775927318
1605, -23.86438354391794
1606, -31.871326598879023
1607, -23.06008534327475
1608, -11.37412183024071
1609, 0.18541905384518031
1610, 9.726393204026863
1611, 12.179089899546852
1612, 10.080775272930168
1613, 6.719126785571461
1614, 6.653515084723949
1615, 6.533871754926167
1616, 0.0281378018680698
1617, -18.147091740360338
1618, -15.507098853470325
1619, 1.7815577558794757
1620, 18.574992130508235
1621, 30.627829063566878
1622, 15.928434577349435
1623, -23.860752373635023
1624, -32.56453981752475
1625, -12.816134573763065
1626, 15.3508145355554
1627, 16.38558006095036
1628, 9.32966805364913
1629, -2.512397114432133
1630, -17.129660101497393
1631, -4.157552734029196
1632, 9.219588538844164
1633, 7.442257965774388
1634, 21.733570898202288
1635, 18.72286822703063
1636, -2.7240110846328207
1637, -9.165591279703676
1638, -10.977434106825967
1639, -8.788173324100171
1640, -3.0855700376591813
1641, -17.305931351391337
1642, -31.716221578016757
1643, -29.18323659972748
1644, -9.286027769490374
1645, 2.8216233520229252
1646, 5.11504646091953
1647, 11.62333082831583
1648, 4.515814670346572
1649, -6.771305501249117
1650, -12.727946107883326
##END=



