##NAMES=
##LOCALITY=
##RRUFFID=
##CHEMISTRY=
320, -40.39406462275838
321, -26.842226956923696
322, -14.433285027487727
323, -8.009254917515136
324, -5.202982967983189
325, -2.7079682355361
326, 0.8885953107492242
327, 10.212750675022107
328, 25.38852070606299
329, 33.46530993577835
330, 31.580490914351685
331, 26.457267632360526
332, 21.784843992505557
333, 22.040846044343198
334, 30.16053394084156
335, 45.45081296304306
336, 60.72094426858348
337, 74.81158420262364
338, 82.03557383002226
339, 81.98159040291284
340, 85.44608645635344
341, 96.53057035794882
342, 108.2064588298872
343, 114.69048472044597
344, 111.81148927502363
345, 91.84627109444409
346, 59.858237634571196
347, 36.3269675667143
348, 26.057158369998433
349, 19.585029116646183
350, 14.356831384688121
351, 16.307715901002666
352, 28.960039368656
353, 39.009922209228534
354, 33.24191359840552
355, 20.30373715456517
356, 22.999804838289492
357, 39.12605201475526
358, 49.30255510521056
359, 51.4650696321969
360, 49.60892092355061
361, 44.90164994965562
362, 32.7146065814959
363, 10.139660489818198
364, -11.984093012824815
365, -22.422961990923795
366, -22.654757987562334
367, -14.127189726483266
368, 2.0362533980478474
369, 16.334293172132675
370, 28.979972189774344
371, 50.53753597507057
372, 81.15861991105157
373, 103.72529660506916
374, 106.43909520322268
375, 91.92432742288474
376, 64.04015444351353
377, 27.99317365695788
378, 1.7204236003781261
379, -15.177090013063207
380, -16.823288609464726
381, -3.359127169867861
382, 6.926809244883771
383, 8.311573633927765
384, 1.9154206641087512
385, -10.842533332177481
386, -23.16035469010967
387, -24.86002335671583
388, -18.937607946212665
389, -12.81667681381441
390, -8.797049036003955
391, -19.966026746980788
392, -47.18517732250075
393, -62.53913948808804
394, -58.27911692888301
395, -49.057919911587305
396, -42.94117689063387
397, -38.94594634061286
398, -36.226390190060556
399, -38.09952113169129
400, -53.15684489247178
401, -74.46212591923359
402, -64.72612995068812
403, -22.746370243310594
404, 11.876425662998372
405, 32.009727304781336
406, 52.33556714579936
407, 80.89539549221809
408, 127.44319007869854
409, 202.91226264702527
410, 307.2214698304233
411, 406.48304936923705
412, 496.5833452483148
413, 564.8089660540863
414, 613.3081328688168
415, 662.3757429143152
416, 715.6709428867161
417, 773.7449815792679
418, 836.5136074884504
419, 883.6912698656579
420, 902.6653224595466
421, 898.4769095136107
422, 877.1864906777046
423, 846.7935966512778
424, 825.0402255216886
425, 805.1323023314726
426, 757.0343650137111
427, 681.5684241572599
428, 610.4147511039682
429, 549.2407035685374
430, 474.86625812044986
431, 378.3781674007514
432, 281.9590291675977
433, 201.19592067440863
434, 139.6074851670346
435, 68.96725745571348
436, 1.0608061088732939
437, -25.93039506137029
438, -21.865879023007437
439, -24.555649315572737
440, -35.465248686907216
441, -30.727459986228496
442, -5.381472166172898
443, 23.55580625319817
444, 51.47665720407167
445, 91.10047097076495
446, 153.1170720254413
447, 213.20323699833534
448, 252.39169432593917
449, 274.07756782594333
450, 285.800470191989
451, 288.3349858828442
452, 283.5992240467731
453, 273.15643212252326
454, 266.44855028691927
455, 264.1103670445591
456, 249.24880134438354
457, 216.43815873426138
458, 174.30207092693672
459, 127.67948898346003
460, 78.04047228943455
461, 34.639345684559885
462, 0.7528139936257503
463, -13.877467430014804
464, -15.372344690942555
465, -17.98270383020281
466, -22.011551610450624
467, -23.698584051135185
468, -23.30876183694454
469, -26.79943908891255
470, -35.452049211611666
471, -39.298974336039464
472, -34.41354626908833
473, -23.95623579734638
474, -9.299166263552252
475, 0.01062836481287377
476, -7.736335572768439
477, -23.72613422161885
478, -31.137499247357482
479, -30.493798428122318
480, -22.45923837434748
481, -6.350092046743157
482, 19.08297732193023
483, 53.954293455370134
484, 74.12148341204556
485, 74.49549793818551
486, 62.554811278641864
487, 41.44082171994887
488, 25.503097786297076
489, 26.416013626867425
490, 35.313365741423695
491, 40.06088747512331
492, 43.651948638638714
493, 51.2841195807996
494, 54.52029069724813
495, 29.993192824704238
496, -13.817902962595326
497, -35.51788011565259
498, -35.724073078230504
499, -39.453291708849065
500, -51.297621051986425
501, -61.47871403210593
502, -67.31806640117611
503, -62.41312784566617
504, -42.854211352179846
505, -20.69030506650961
506, -4.5970218199181545
507, 8.260040144699815
508, 20.710224110916897
509, 31.497870092265657
510, 36.77136609075569
511, 44.17146893640529
512, 76.18333961577628
513, 132.09102555561185
514, 179.2959949674223
515, 214.25773398831006
516, 233.9781947510819
517, 239.38141669199103
518, 251.5018886085545
519, 276.3473975214438
520, 293.18658665583825
521, 292.23977031636787
522, 286.52717375875727
523, 285.39879578433465
524, 278.74971948384155
525, 255.24329564926302
526, 223.64856627084737
527, 198.9490391874424
528, 177.35406381540088
529, 148.66210149492508
530, 115.13222675553516
531, 98.55379856414584
532, 98.84702161279893
533, 119.44105929454963
534, 161.2788203101518
535, 197.51708238515857
536, 224.9864622569621
537, 250.03138615058378
538, 274.8107991332563
539, 296.83513837978535
540, 314.8987021424964
541, 339.2567486578555
542, 377.4835864387678
543, 415.5282217733693
544, 437.8162758088365
545, 448.51665960149876
546, 454.4218889566073
547, 451.46942616780507
548, 430.01917520256575
549, 395.65853467393754
550, 368.0453343267909
551, 347.28670912974303
552, 326.6119292140338
553, 305.27372413922785
554, 284.13093619882966
555, 263.36363504653855
556, 243.12881520373412
557, 223.388115766571
558, 202.53426459073853
559, 179.98697079830345
560, 157.62625402585581
561, 136.45149619464792
562, 114.13993952058081
563, 88.94460198794695
564, 59.96744927681175
565, 32.2383180787092
566, 9.027615161248832
567, -2.807931984834795
568, -8.858906389206822
569, -19.117900645225745
570, -29.94431993794933
571, -28.358333179301553
572, -17.36457248579609
573, -11.39241415189099
574, -9.028362171853587
575, 2.5677032745297765
576, 22.735122159901948
577, 23.171626647472294
578, 0.532298748521498
579, -16.75831580398699
580, -22.65612656259509
581, -22.454735664712643
582, -17.860494571561503
583, -6.55238973910491
584, 13.400987873968916
585, 28.91060163147995
586, 30.81963735516365
587, 25.920659760929993
588, 20.30962003514105
589, 15.145570114533257
590, 11.844709492121183
591, 11.712829057058116
592, 13.756410483789296
593, 15.59831591274451
594, 12.208219165082483
595, 5.1517525818999275
596, -0.3286000655061798
597, -3.775778593702853
598, -2.931334731989409
599, 2.690356963628801
600, 14.448033046601267
601, 29.411338707268442
602, 30.78221158400993
603, 17.688674966528197
604, 6.315651080385578
605, 0.6979051072557922
606, -1.8719664441050554
607, -2.6798743819308584
608, -8.960675667685791
609, -23.523042767046718
610, -36.59224061061832
611, -44.30590368176672
612, -43.39329448822173
613, -31.480156623672883
614, -10.86139318399546
615, 18.02094932754335
616, 44.362324996434836
617, 53.89655449516249
618, 53.84705663628483
619, 52.61442322622315
620, 48.68660515125521
621, 39.84127696700125
622, 32.83663447386061
623, 43.170928990408356
624, 59.292629494750145
625, 62.41253790362134
626, 50.85081823129258
627, 21.910754347483817
628, -12.250907101437406
629, -22.045345976233875
630, -8.088619023474166
631, 22.33460882093823
632, 63.41646938743179
633, 74.39907767987643
634, 54.612801213943385
635, 30.37994416944275
636, 7.438385187366293
637, -3.2142176136640046
638, -1.3922005533149786
639, 5.473047234376281
640, 15.185090662016592
641, 14.977753941271658
642, 2.837989936291706
643, 3.12567707209746
644, 23.032357486921683
645, 38.558428337630176
646, 40.306661389136934
647, 33.2370277590926
648, 19.80226411980766
649, 5.369174364674109
650, -6.532480395626408
651, -13.763015258526138
652, -14.911214682404534
653, -9.888996356330608
654, 1.948547151292587
655, 13.12670603431252
656, 15.909831248211049
657, 12.220158726027876
658, 4.0162798413457494
659, -5.148398546913086
660, -12.4568130227035
661, -11.868965614236004
662, 5.893090100624249
663, 25.469526125192715
664, 19.56535067484947
665, 2.7003473813838355
666, 1.2158338313656714
667, 7.958179612729509
668, 8.78087369694731
669, 9.986487469957865
670, 26.352657757615816
671, 44.98468534025778
672, 35.225244993425804
673, 9.62063347621006
674, 7.379498466172663
675, 23.768968744752783
676, 37.77617202974034
677, 44.36387829544219
678, 31.34253951271603
679, 4.45229367398133
680, -11.177057225284443
681, -14.417070395304108
682, -3.9478122376367537
683, 20.423909621529674
684, 56.597256426241074
685, 95.6343427166812
686, 106.95392869779062
687, 91.22302392737947
688, 72.96594241745152
689, 54.91985208690494
690, 32.489371614150514
691, 10.269766355622778
692, -1.1946063904997573
693, -0.9442041488364339
694, 10.534660806064494
695, 32.42298543151264
696, 53.4631394879998
697, 68.6373925288317
698, 84.7061082988439
699, 100.87816500476583
700, 98.9137175675769
701, 77.36748145796082
702, 59.212054755660574
703, 47.695958995122055
704, 22.87943971644745
705, -14.10303952634058
706, -29.894534832976206
707, -19.33723482509413
708, -10.065553697260839
709, -7.227026556978672
710, 6.512619685747268
711, 34.61659717457951
712, 46.647793674801505
713, 35.84584232273119
714, 22.14134103050128
715, 11.380966518372588
716, 5.407286545725583
717, 3.8305800934922445
718, 6.475880441556001
719, 13.13690780854813
720, 17.182649139358546
721, 16.99863695224667
722, 15.363892900535575
723, 12.835262284572309
724, 5.482825038588999
725, -6.3860791642728145
726, -11.146102879843966
727, -6.156905002055282
728, -2.031435862296348
729, -1.0852398332372104
730, 5.819508477841737
731, 20.13021553602084
732, 15.76902749474175
733, -12.045725669395324
734, -28.228914964782234
735, -24.805256091602132
736, -15.99330332621139
737, -4.809842621216376
738, 13.947925079906781
739, 41.40556248295434
740, 54.92344008481632
741, 50.162012337756096
742, 43.54232202872663
743, 39.44351195606214
744, 37.57201213011649
745, 37.50484687551034
746, 35.943125584335576
747, 31.951239332227487
748, 24.486968911942313
749, 13.729349241513773
750, 4.63213553366586
751, -3.115954607435924
752, -11.9337435290945
753, -21.7899746059702
754, -24.412793272773342
755, -18.93670768062657
756, -9.780430376869845
757, 3.7520660073114414
758, 27.499387185478554
759, 56.76812079374213
760, 61.854620450216316
761, 42.453628496567035
762, 22.6991646346396
763, 5.810916771930351
764, -9.4182580515062
765, -20.922760938410647
766, -12.50680014468162
767, 13.016839319408973
768, 34.276961400804794
769, 49.02359868039275
770, 63.554889794821065
771, 75.10882366974329
772, 72.08135984784349
773, 56.902248488322584
774, 40.22388690723892
775, 24.93615767042138
776, 19.53691421284384
777, 22.880128523160238
778, 32.817877927591326
779, 43.23083810161006
780, 45.60045361554148
781, 39.82964499112131
782, 26.413105984418507
783, 11.615862971817478
784, 8.064098996679604
785, 17.52255689454796
786, 43.98247084475588
787, 66.90086829226675
788, 59.32433695417967
789, 38.22221399570117
790, 25.066448775432946
791, 15.799826171074528
792, 7.5493239372372045
793, 7.228719168693715
794, 21.8977595872002
795, 28.67750616030571
796, 10.28725677652983
797, 2.0329253120798967
798, 25.91748173751148
799, 49.34456355288421
800, 53.55135144893575
801, 47.01208862030944
802, 34.085710232988276
803, 16.98048868715705
804, -0.7215607145699323
805, -4.172559475642629
806, 10.247987064496556
807, 14.87423733988362
808, 1.7886673697048536
809, -5.56814139484959
810, -1.373855729618299
811, 18.07833311844479
812, 52.382466871586075
813, 79.43612728102562
814, 95.11022361761934
815, 97.1262872506195
816, 84.51943087987092
817, 54.53807002756366
818, 15.301698623359698
819, -1.192644244469193
820, -1.706013178169087
821, -9.684416943182441
822, -21.57607456731421
823, -24.08243053986189
824, -16.90074521529641
825, 0.4691003768148221
826, 24.96784728005514
827, 48.66268955537089
828, 63.88240340021002
829, 60.59998039066704
830, 43.081249144568574
831, 15.915163787278289
832, 1.9758739938279177
833, 17.118364469661174
834, 32.369585937945885
835, 26.495273087744863
836, 18.095606455746747
837, 16.551415261463262
838, 13.803220141167913
839, 6.79641988676849
840, 0.8655954483547248
841, -2.3968931155177415
842, 3.2094375185624813
843, 17.524630839581732
844, 22.112709867382364
845, 14.577926938367455
846, 2.14669278335532
847, -11.483695787948818
848, -17.60101583974938
849, -12.309607311919535
850, 16.013290407201566
851, 49.94875683918144
852, 39.57711488376481
853, 3.615326764214842
854, -15.553598385646183
855, -20.120327834336422
856, -12.688398402840903
857, 0.9234569439340703
858, 14.567373191901424
859, 17.574358459753057
860, 1.2686379839215078
861, -14.753734327572602
862, -19.768338585123274
863, -13.479146548954304
864, 4.106719714904102
865, 17.17408007342783
866, 20.24216776648609
867, 27.248476122273132
868, 40.47451781431482
869, 48.950374057283625
870, 49.63502202065138
871, 38.15360589430384
872, 16.90442195533433
873, -1.0553378550303023
874, -12.121355828690866
875, -5.425981457939997
876, 14.16661998267955
877, 35.79977330592192
878, 51.18307471158914
879, 50.55461821558674
880, 43.10578313080987
881, 38.79897345001518
882, 35.15555689105895
883, 30.154317601694856
884, 16.935482248225526
885, -5.623298888103818
886, -21.51141778967758
887, -24.451884351718036
888, -6.842148927029484
889, 31.92413185614714
890, 71.06634399861468
891, 100.37096140900212
892, 109.50836241326397
893, 102.58656890356542
894, 98.48538963672218
895, 92.26644461852447
896, 68.03217639890863
897, 34.552833108391496
898, 11.6503004200149
899, -3.348454363303972
900, -12.701839170882522
901, -3.012767404474289
902, 37.33952883598431
903, 68.88970404957035
904, 70.12757158908062
905, 49.0913001756071
906, 11.99846554448959
907, -7.313852174504063
908, -5.8088325713088125
909, -7.135237737531497
910, -9.640138638947974
911, 11.897580122156796
912, 47.3669585249736
913, 52.13782087442269
914, 39.493964839695764
915, 40.883513568485796
916, 40.924987446440355
917, 18.191447503795644
918, -2.3251669810924795
919, -3.0621744318013953
920, 0.7048820720938238
921, 1.1187242583000625
922, 5.1844167640883825
923, 16.491413046120215
924, 41.355298849972314
925, 75.90817456838704
926, 99.46765444556877
927, 108.53233075184107
928, 102.58028567533802
929, 84.14825977299006
930, 59.64630055558882
931, 37.667462518083994
932, 35.530679465355206
933, 30.650842459890555
934, 3.623172791218167
935, -12.122794222488665
936, 2.320055198337286
937, 22.01154306209901
938, 38.260852009476366
939, 54.851124625856755
940, 69.51805765283643
941, 58.04913051695803
942, 23.005687438924724
943, -7.642582336460691
944, -28.537728057372078
945, -27.329052448580114
946, -9.993631227962396
947, 14.668532125167985
948, 40.30954170075165
949, 57.08476402298402
950, 59.097917332708676
951, 44.56946288645304
952, 43.583728090769
953, 63.04694496175216
954, 66.26271388882014
955, 47.790892484052165
956, 22.61491134694552
957, 4.097960263310597
958, 17.810537211242263
959, 52.96207146837514
960, 81.30819198132849
961, 85.94306778629107
962, 48.57874375917345
963, 3.416510644912705
964, -25.84785549166554
965, -33.28449156829083
966, -18.832035922288924
967, -8.433269146715247
968, -6.93970549315236
969, -9.061122193736082
970, -10.691769658480553
971, -0.9090574622641725
972, 12.657333707622456
973, 12.405877542118105
974, 6.06028425756449
975, 3.340183471553246
976, 12.508176969164197
977, 38.38684615543389
978, 51.527139286494275
979, 42.936604690590684
980, 26.776390168704893
981, 7.857414164183865
982, -5.633149762732501
983, -12.476087096656556
984, -8.953986868387801
985, -2.6854850059753517
986, -5.768554780373961
987, -5.490845416741649
988, 9.221846939220995
989, 27.843312701506875
990, 42.537454563063875
991, 41.88002941232298
992, 26.00957101674794
993, 14.81543850016351
994, 13.582161292679302
995, 24.160138899462254
996, 42.72574322395303
997, 57.500916985987715
998, 65.63057494630266
999, 64.66263201664515
1000, 69.16761758017674
1001, 86.71707184612933
1002, 107.8565664744583
1003, 124.73588791341899
1004, 106.71380195847996
1005, 58.87440061710549
1006, 17.32772499584371
1007, -6.963771990377609
1008, -4.422579453166691
1009, 13.748596482186258
1010, 36.58561112596544
1011, 42.464997592074724
1012, 21.59985168892672
1013, -4.4400296434541815
1014, -25.786941913014743
1015, -23.297144422842393
1016, -2.7091534275505182
1017, 7.6241531433388445
1018, 13.799594857915508
1019, 29.318896350053365
1020, 53.01486365129222
1021, 79.01963680181325
1022, 99.96331068903419
1023, 110.76414195931284
1024, 95.95211048334932
1025, 58.222833993798304
1026, 30.661894722650686
1027, 16.602584942335852
1028, 3.963131507101025
1029, -0.19994502811005077
1030, 15.84556658290603
1031, 41.119692764924366
1032, 64.93723284945645
1033, 81.92600809525266
1034, 87.67508788771738
1035, 65.30871551695509
1036, 21.657355834398913
1037, -6.300018410007397
1038, -16.94136503759364
1039, -8.651524362047894
1040, 1.7315601964646703
1041, -0.6008725520832741
1042, -5.048217476933132
1043, -7.449619698882998
1044, -12.184305646469511
1045, -18.083756860591166
1046, -14.527181161376575
1047, -7.789931495601195
1048, -14.415130681026312
1049, -22.88200675293956
1050, -20.173668545749024
1051, -13.108503977357941
1052, -5.3539449651752875
1053, -2.366620034769767
1054, -6.965937885562198
1055, -26.25256185334183
1056, -48.12892436654147
1057, -39.544082601335504
1058, -19.021087918218655
1059, -9.007341159758653
1060, -3.792457722403924
1061, -0.3110867035038609
1062, 0.409766611734085
1063, 2.277266962975773
1064, 25.595305642480525
1065, 65.36526709883583
1066, 102.275741895789
1067, 148.14612835372827
1068, 203.07380482075314
1069, 265.635716024015
1070, 332.4369994886292
1071, 376.41571944488805
1072, 390.1300170763998
1073, 372.19649363392
1074, 337.41621045449756
1075, 317.32929070021237
1076, 300.7497840377564
1077, 275.4749578855135
1078, 237.05380567539214
1079, 184.82264857414611
1080, 130.27800080887027
1081, 79.78095372876669
1082, 55.00222595927062
1083, 43.732263618488105
1084, 25.961740795115475
1085, 5.836776155211737
1086, -12.94605753540418
1087, -17.01395422656242
1088, -6.584407657094744
1089, -12.943357836948053
1090, -31.707419809969906
1091, -36.42566477990931
1092, -32.84205844258304
1093, -29.101905847446687
1094, -13.598731546284398
1095, 17.369184454274546
1096, 22.713614375233192
1097, 1.5033290098317593
1098, -4.611815848163133
1099, -0.12195958840857202
1100, -0.2570794207304061
1101, 2.6220330877331435
1102, 14.122858524027833
1103, 10.680944216533135
1104, -10.886574156908864
1105, -19.00104430576721
1106, -13.996263313609234
1107, -8.078192743852924
1108, -0.506311746729807
1109, 9.892595557268578
1110, 4.502288256391694
1111, -20.380714963283936
1112, -24.12621476449931
1113, -5.585657266947237
1114, 9.554611901397948
1115, 23.173862137417018
1116, 38.132255140996676
1117, 41.300299351405556
1118, 26.152850853866767
1119, 13.124206562059044
1120, 7.9384885332246995
1121, 4.478879386185326
1122, 6.51544686671059
1123, 22.89769812573195
1124, 43.246247066154865
1125, 55.998035143352354
1126, 60.862611425869545
1127, 60.659085664919075
1128, 69.58857458051352
1129, 83.65076555954238
1130, 90.51019216518671
1131, 76.79793522743694
1132, 33.26401296628319
1133, -3.8368867668559687
1134, -23.7699483815004
1135, -15.48611231886116
1136, 16.71119992363947
1137, 60.22376990825251
1138, 91.54301784421659
1139, 92.75547675819416
1140, 91.07247236637704
1141, 94.40770247919681
1142, 89.5566043610952
1143, 79.99574382135052
1144, 78.11696207889054
1145, 75.08054356744742
1146, 63.055073083288335
1147, 52.93517695693845
1148, 46.081414128835604
1149, 28.298696237919103
1150, 6.689848450930185
1151, -7.259249283981262
1152, -10.956697821598027
1153, -2.830141115076003
1154, 1.8378619873801654
1155, 2.3240556823275256
1156, 19.298346058653806
1157, 48.61634879335725
1158, 71.90963569085125
1159, 85.40717837804641
1160, 85.83359622644093
1161, 63.271789184686895
1162, 21.996390012687698
1163, -6.584819176969177
1164, -19.080952700883245
1165, -11.92953684704753
1166, -7.354430708655855
1167, -15.963250999485354
1168, -11.393149669781451
1169, 6.639107131348283
1170, 17.892322613286524
1171, 29.457052052865947
1172, 52.3645463256762
1173, 52.96596484346264
1174, 21.687461597674883
1175, 1.6591915154858725
1176, -3.16143705628474
1177, -3.4788373178471375
1178, -1.9744627506424877
1179, -0.7356839117992422
1180, -3.315262722132502
1181, -8.298070509256831
1182, -2.423718180278229
1183, 8.316779215319912
1184, 9.419070681237827
1185, 1.6897809680922364
1186, -12.20630579997669
1187, -16.89081029107274
1188, -9.921628745493763
1189, 5.659356615070465
1190, 24.638167556056032
1191, 38.604929938294845
1192, 43.51977525269376
1193, 38.67946481013769
1194, 29.666771049907766
1195, 16.216788248678313
1196, -2.2529734732006546
1197, -16.646348060423406
1198, -19.650267841007917
1199, -2.341855556665905
1200, 35.088691350464615
1201, 81.80750614660701
1202, 116.74083284441622
1203, 120.83955412989417
1204, 118.22806040268915
1205, 117.89791656420039
1206, 112.5387556749829
1207, 106.89269136562962
1208, 112.04035011312226
1209, 101.93704616867308
1210, 63.99185050498454
1211, 43.06503718427757
1212, 43.85054105621384
1213, 31.40082357767733
1214, 16.097991648440257
1215, 11.624573860694
1216, 5.129567914398649
1217, -5.074638669620072
1218, -5.119236014714261
1219, 0.23947744116867398
1220, 1.5916688062716275
1221, 1.924470184774691
1222, 2.362746787852302
1223, 0.15783126056612673
1224, -7.7665335989704545
1225, -27.23240100457042
1226, -45.536484563615886
1227, -52.84002016102295
1228, -40.05906105297527
1229, -9.690205219390009
1230, 22.9172999029297
1231, 37.98014210405927
1232, 18.79223275440654
1233, 6.562647778851897
1234, 12.566119447726123
1235, 24.95864938705199
1236, 33.58353420529602
1237, 28.172577741479472
1238, 6.556020322841505
1239, -22.60360554732597
1240, -17.551068286934424
1241, 16.656089348301975
1242, 63.21750532982969
1243, 105.35582483926737
1244, 127.14912784207809
1245, 139.20691682302459
1246, 150.48621570228443
1247, 175.37580330040964
1248, 200.84437494618214
1249, 218.250017228459
1250, 227.81610955997257
1251, 228.38865622145477
1252, 217.1159748342925
1253, 203.29042115062384
1254, 193.08779046885866
1255, 177.63535351806695
1256, 161.87581270975625
1257, 181.57194237238127
1258, 208.5587947127833
1259, 230.55518557073174
1260, 236.04978871177263
1261, 229.508007698475
1262, 234.0608684730587
1263, 234.08672077752
1264, 214.3087243874843
1265, 187.15049303456271
1266, 154.64302570201016
1267, 111.33791997732988
1268, 78.17665472714907
1269, 81.40480869823023
1270, 72.18999562037152
1271, 42.87584714499644
1272, 14.944927963901137
1273, -4.631611082116251
1274, -9.847051279879452
1275, -10.485487919792831
1276, -9.286264483066589
1277, -5.2988731419391115
1278, -2.362630506135247
1279, -3.721153865217275
1280, 1.4672741688918904
1281, 10.241563451478214
1282, 0.39466535162227956
1283, -8.401869790764977
1284, 1.61842123563747
1285, 8.50209894857835
1286, 8.805928322621185
1287, 12.790365981910327
1288, 10.58976566455749
1289, -4.062273022469526
1290, 0.6668503145110662
1291, 22.194014001084724
1292, 28.752070522382382
1293, 26.857126983017224
1294, 22.720126349213388
1295, 13.632367267306108
1296, 2.3983862984878215
1297, -2.5395849345468378
1298, -3.8446531269964908
1299, -4.835783055728825
1300, -16.381158390864584
1301, -29.878990388530838
1302, -22.886281263952696
1303, -14.06816116574646
1304, -12.399873930469766
1305, -9.209765431962296
1306, -6.633389452706069
1307, -9.976406248094463
1308, 3.7107076618913197
1309, 38.019671696951264
1310, 53.83811986794535
1311, 43.68868059318538
1312, 6.487952125071388
1313, -14.521490783056834
1314, -12.762051642685037
1315, -11.648982433634956
1316, -8.628119553127362
1317, 0.025204591837791668
1318, 4.483392616036326
1319, 6.5912785789651025
1320, 17.867218019631764
1321, 18.038235136344156
1322, -1.2576680930660586
1323, 3.3511108436787254
1324, 29.055752054101504
1325, 52.02405790949524
1326, 53.38197646525714
1327, 29.472394703791906
1328, 7.992532652864611
1329, 0.9855923794984847
1330, 16.476409612061616
1331, 31.681535238363722
1332, 36.79470692507766
1333, 33.6330035113333
1334, 26.926226908549324
1335, 20.32878409933619
1336, 10.251284577810111
1337, -2.439743803404781
1338, -17.226671991784315
1339, -23.27300358075172
1340, -15.268595398207253
1341, 1.7066545590132591
1342, 16.333133519648072
1343, 11.988152618925596
1344, 5.902868746128661
1345, 4.144921245859223
1346, 3.550454301672289
1347, 9.985895921563497
1348, 26.28884937123712
1349, 25.574379323166795
1350, 20.59996967607458
1351, 50.40989830951639
1352, 74.77314263361131
1353, 74.48981096424359
1354, 53.36499801203172
1355, 16.463236646909536
1356, -25.59656532464396
1357, -33.33231169664941
1358, -8.292691886161265
1359, 15.247617381623058
1360, 31.65928000821623
1361, 36.70350307961144
1362, 37.49741996319062
1363, 32.140508370630414
1364, 17.01143189546474
1365, 9.948634051276713
1366, 13.591889703502602
1367, 20.442996225532625
1368, 33.40388375211205
1369, 51.59228599960716
1370, 43.41881342566012
1371, 16.351135414916826
1372, -4.790807815954395
1373, -9.534070305955538
1374, 2.565647916945636
1375, 19.22885185364339
1376, 26.59669438938363
1377, 16.741341923201617
1378, 6.206545980924602
1379, 9.185095971100054
1380, 41.27223165961459
1381, 51.97080284961066
1382, 31.878763100030483
1383, 16.974909804227536
1384, 10.410082751610389
1385, 11.971928024028784
1386, 32.921247142634456
1387, 53.21419941570548
1388, 40.689468083341126
1389, 25.60106637296758
1390, 15.503421094350415
1391, -1.34442052265058
1392, -15.061601793086993
1393, -19.183446949131394
1394, -12.651118847298676
1395, -0.9949262466352593
1396, 7.5761118796708615
1397, 6.2785386758478126
1398, -2.637993579830436
1399, -8.171853527167514
1400, -2.7932741849735976
1401, 13.667373388405395
1402, 20.067155644342165
1403, 13.335193828565025
1404, -3.620720181888828
1405, -0.6380532744460652
1406, 18.279347659085943
1407, 30.777482228654662
1408, 37.54796440505015
1409, 38.96062873327901
1410, 34.49908744223467
1411, 27.95038694249888
1412, 21.27004616868635
1413, 9.34316482279155
1414, -5.6841705187434854
1415, -20.34805857919764
1416, -9.50186386876976
1417, 15.598373777532288
1418, 11.720529987245754
1419, -0.0041298308733530575
1420, -7.774804932760162
1421, -9.273169627360403
1422, 2.6467239092035015
1423, 29.103038242331422
1424, 34.01229074246112
1425, 19.876267124928745
1426, 0.6690981267793177
1427, 0.35523788369391696
1428, 14.728186119111342
1429, 21.30798928835702
1430, 29.675203531222905
1431, 40.96794041311841
1432, 40.289210424001794
1433, 29.277387830256885
1434, 11.006892608096678
1435, -8.005568117754592
1436, -12.354789235013413
1437, 12.442353256801653
1438, 28.805212981556906
1439, 34.19098012919221
1440, 43.11274682840485
1441, 41.377106943244144
1442, 30.5563679410443
1443, 28.746681756394537
1444, 8.774859839607416
1445, -28.09775365578389
1446, -22.37136805668979
1447, 3.907393287344348
1448, 29.848295246557427
1449, 56.751334376493105
1450, 62.530040336851016
1451, 26.609855438354316
1452, 15.628776901052333
1453, 25.090555942831998
1454, 14.485177540929726
1455, 7.90090973876886
1456, 9.611931042849392
1457, 11.938823915953435
1458, 32.998898107909554
1459, 66.35573175425725
1460, 62.890349295124
1461, 30.802938367522984
1462, -11.788015120801902
1463, -19.481603743766755
1464, -1.8960754085637745
1465, 26.39601758556637
1466, 50.678032163911666
1467, 54.86670322309146
1468, 25.962339776170666
1469, 7.024385017500208
1470, 4.056107503657586
1471, 7.047006863584102
1472, 17.612161074511278
1473, 29.756239185221602
1474, 30.416457841708507
1475, 20.353457875657114
1476, 5.892046893701263
1477, 4.23365041881334
1478, 9.368230271358698
1479, 20.217929008002102
1480, 45.63091644948145
1481, 54.78220438129756
1482, 36.86972707036148
1483, 36.13494040600381
1484, 41.20013719049348
1485, 38.66029306246219
1486, 35.93341157308441
1487, 22.55704047069048
1488, -8.619223029259047
1489, -17.722991499661475
1490, -1.6178006642576293
1491, 31.207306195451565
1492, 38.563912162644556
1493, 22.793467666017023
1494, 5.033690969039526
1495, -3.101021837765984
1496, 2.4296434346015303
1497, 23.869698596186026
1498, 38.09112682706382
1499, 40.844075428004544
1500, 39.171519629323484
1501, 23.932551084961233
1502, 2.7265344564348197
1503, 2.542536943383311
1504, 3.1304350669142877
1505, 1.4140300739945815
1506, 13.558337500036941
1507, 12.713828297910368
1508, -2.1707326670330076
1509, 5.959727332158764
1510, 17.261179592420376
1511, 17.33822942493771
1512, 2.0103560458201173
1513, -6.471450365320379
1514, -0.954371179120244
1515, 1.3343881917380713
1516, 8.722310842558727
1517, 22.320275762681376
1518, 19.91173581023213
1519, 23.101202948891114
1520, 39.563813633498285
1521, 37.85910628302008
1522, 30.678667321302783
1523, 27.157133969609276
1524, 19.86503817880839
1525, 7.033180195316163
1526, -9.625000186276338
1527, -24.588167953722404
1528, -28.127843961618055
1529, -14.427321515105177
1530, 12.489023130318856
1531, 33.47647860936195
1532, 37.11191843189863
1533, 43.98309371891082
1534, 58.90389851527743
1535, 79.0385719186479
1536, 85.37522909836935
1537, 62.217045631302426
1538, 12.093345200417389
1539, -17.169596509940675
1540, -16.797834310394137
1541, 7.0081720927455535
1542, 16.468809308005802
1543, 11.954259810822805
1544, 2.636884681837728
1545, 10.179807610048556
1546, 18.71602680896649
1547, 17.01979824467344
1548, 1.319534472045234
1549, -7.784551355301119
1550, -3.821668863627565
1551, 3.1550191404539873
1552, 4.6503081588325585
1553, -2.3719809659150997
1554, -13.674227743658776
1555, -6.272064973242777
1556, 16.398837992578592
1557, 21.31843316954837
1558, 9.885299779924026
1559, -5.4938478792100796
1560, -2.2406426345442014
1561, 14.3762615131036
1562, 28.302813700664046
1563, 16.469556251778158
1564, 5.457027964191184
1565, 0.7148970797179572
1566, -0.03221376327201142
1567, 21.785834415775753
1568, 36.27882541933195
1569, 9.798493592933482
1570, 10.100564233666773
1571, 18.137266925687072
1572, 6.747075294262686
1573, 12.360096118940419
1574, 24.84839291651315
1575, 37.900454681920564
1576, 77.04050941617425
1577, 113.72462854882087
1578, 127.15981871558142
1579, 108.25566364112001
1580, 85.80079231768377
1581, 69.99421035167325
1582, 47.30373704573503
1583, 23.346020061612762
1584, 5.7224342526742475
1585, -1.1176712320148
1586, 9.143749471033516
1587, 24.687236761061286
1588, 21.193876024171914
1589, 8.315637526227874
1590, -3.9286208917628755
1591, -8.72452781708671
1592, -8.36102425680292
1593, -5.304219876795287
1594, -2.779170993500884
1595, -7.553998921831408
1596, -6.526183176423729
1597, 1.1676067002235868
1598, -9.707821446820162
1599, -5.64458978996754
1600, 16.13769345874789
1601, 23.182256060399595
1602, 29.692166240734878
1603, 30.80217588655887
1604, 13.820180099482059
1605, 15.492870061782924
1606, 32.25852104221576
1607, 48.25767227864981
1608, 60.671951314515354
1609, 60.33393523460563
1610, 42.57801433117129
1611, 15.081930577304774
1612, -12.142837184337623
1613, -26.282075932645057
1614, -2.200349215467213
1615, 20.329798449894042
1616, 25.475961791288682
1617, 13.401991333835213
1618, -2.4587783761007813
1619, -7.80262284607943
1620, 4.4783120086212875
1621, 10.114179319784853
1622, 6.923454888251399
1623, 3.606439392649918
1624, 20.56224352057143
1625, 28.120482492456176
1626, 15.321238989451558
1627, -9.24456989817645
1628, -12.242066829205214
1629, 0.9092710512832127
1630, 12.216790368071997
1631, 20.12157582560576
1632, 16.302680073201373
1633, 3.472583662064608
1634, 12.789883748980174
1635, 12.357899804286717
1636, -1.565509117340298
1637, -3.4831275800952426
1638, -6.193794226584032
1639, -5.78669457495198
1640, 5.47566155057666
1641, 13.194562979873808
1642, 19.981087742879026
1643, 24.801818920433107
1644, 11.619893762774154
1645, 1.4018858811396058
1646, -1.764566158783964
1647, -7.660646436841489
1648, -7.786833233519246
1649, -10.709469936923597
1650, -26.82724812003289
##END=



