##NAMES=
##LOCALITY=
##RRUFFID=
##CHEMISTRY=
320, -11.886234976744163
321, -12.665922140233306
322, -11.410453050946671
323, 4.1689632395828085
324, 29.62782915437674
325, 54.00514677211504
326, 74.49429006774699
327, 81.03319692374316
328, 72.7069689605396
329, 50.314268794372765
330, 14.518088894312314
331, -11.317815065829564
332, -17.759238467921023
333, -11.34490161105532
334, 1.1130011699387978
335, 17.04769917916201
336, 27.607774971469553
337, 35.26094023179576
338, 53.26028597316326
339, 79.93748197703098
340, 109.79539766978814
341, 140.700536938406
342, 156.7824333408298
343, 144.9825310302549
344, 111.28007420319955
345, 66.74606491488157
346, 19.947486122880946
347, 5.441064493950762
348, 22.262661385433603
349, 45.843689164898024
350, 67.24076100632192
351, 76.0160714605463
352, 66.79153942909579
353, 44.26455068809082
354, 13.753498889343973
355, -12.110378135343126
356, -8.934346580743295
357, 16.522009729011188
358, 23.43403445865806
359, 8.056464765866622
360, -2.238229606691675
361, -0.490390589042363
362, 0.33917791414387466
363, -7.9195691808417905
364, -11.19844355078203
365, 10.565127294754348
366, 42.79956668194791
367, 37.32378599329422
368, 0.4743640435008274
369, -14.124537207047979
370, -0.41945810698962305
371, 23.990904933229103
372, 54.96736805554792
373, 81.6829139309757
374, 98.32943743579744
375, 97.96542104677064
376, 70.38307017348234
377, 27.878186062294844
378, 9.490340636488327
379, 12.978687490589436
380, 22.12453207321414
381, 31.99286328542803
382, 29.13834396923812
383, 9.12672803791429
384, -5.165597367549708
385, -0.29770247171109077
386, 12.218076224411561
387, 15.459175575375411
388, 9.657976971204334
389, -4.209425561170065
390, -24.454397808107387
391, -41.79821063106465
392, -55.194536162396616
393, -51.895974181808924
394, -27.639414004606806
395, -8.923526435199165
396, -11.131699755880618
397, -23.81821470196519
398, -35.35014423444409
399, -45.86081921679761
400, -54.07515837129722
401, -58.24985150854809
402, -47.70953207272214
403, -22.860643769059607
404, -8.333364592437647
405, -8.910113132322294
406, -6.699072023113331
407, 7.020013107579871
408, 24.40718148182168
409, 38.815335946173946
410, 58.39744307476576
411, 97.08815347401469
412, 155.61484044230565
413, 228.64631026880852
414, 300.6050507978289
415, 377.1298032162176
416, 457.63587702691984
417, 517.7142858269908
418, 549.3172636668769
419, 570.5097908802545
420, 592.5238625610637
421, 617.4407775033815
422, 647.7626714826492
423, 676.4707836175367
424, 687.96232979468
425, 679.2291899972188
426, 640.4351377334806
427, 574.4691429578615
428, 512.5054014925681
429, 461.0124643303534
430, 415.09331792651574
431, 372.78382673617125
432, 327.9148205896199
433, 276.15139998262384
434, 215.95396502547374
435, 145.27636517419887
436, 87.00480561956647
437, 55.18922518176623
438, 42.31249124957685
439, 25.2355157607617
440, 1.5655001377999724
441, -16.794542843792442
442, -28.427110730593995
443, -31.88439316565382
444, -26.367346034472575
445, 3.2888935835253506
446, 69.98114728437213
447, 150.28485303139496
448, 199.64125734338086
449, 226.83894461750788
450, 251.31990764131842
451, 269.8157012354204
452, 267.4626427696894
453, 246.48957781118224
454, 231.90005414386906
455, 227.1089408221469
456, 212.84027979292296
457, 183.0975189749297
458, 157.65180458728537
459, 147.59689976201298
460, 134.2343821768045
461, 99.16467552902759
462, 53.353024511696276
463, 21.061434189663487
464, -0.9519636990025901
465, -15.887008836552923
466, -24.68618372111996
467, -25.188071152559132
468, -18.464516164383895
469, -16.91498087499349
470, -22.89461421399028
471, -23.535332788263986
472, -13.575528528645009
473, -0.03485947706394654
474, 13.122702535165445
475, 17.11199743002544
476, 1.8484935172600672
477, -23.03764929486715
478, -41.89957067566138
479, -51.90139748994079
480, -40.69336098279018
481, -9.883736466057599
482, 24.477887422921413
483, 62.1144255399613
484, 91.35207528788123
485, 110.29411893128963
486, 126.45928589640607
487, 142.7442367841977
488, 152.09991563303993
489, 150.04471046788967
490, 131.46469591976165
491, 90.94047236922233
492, 43.074639015127104
493, 17.517353348159304
494, 6.953597441151942
495, -3.954345128389832
496, -17.414724798773022
497, -36.08183076583191
498, -59.20918370483923
499, -68.85857309024505
500, -62.85886258577375
501, -53.27671253505832
502, -43.10410194567157
503, -28.150474810492597
504, -5.395226504728271
505, 13.340025328459888
506, 17.626264502609047
507, 14.405013381354365
508, 13.887917138552439
509, 15.371453454685252
510, 17.663739282039387
511, 25.47597340611901
512, 53.149506135987394
513, 99.52009059523152
514, 136.78760233323374
515, 161.88842426363954
516, 173.05455599002926
517, 171.0254982193892
518, 170.8602775799227
519, 176.90611931755302
520, 175.7701578436554
521, 161.14232437215833
522, 142.61668162885326
523, 127.08285504064406
524, 108.83489476443901
525, 81.47132789841271
526, 52.72965455280246
527, 41.10348237260405
528, 41.9563785466471
529, 46.04555300868196
530, 56.04440167399662
531, 77.48085682971032
532, 105.03053278823973
533, 103.24090193377197
534, 70.86247630109392
535, 46.797066622970306
536, 44.11547363917816
537, 47.68640398889147
538, 53.08906907738674
539, 77.11454799618696
540, 130.27982568866355
541, 182.0852789803721
542, 215.70840566592415
543, 237.5417807175727
544, 254.671051350344
545, 267.98684652450174
546, 278.92922315601754
547, 285.4714365558066
548, 282.8672787170872
549, 272.0478803171063
550, 256.70682856091844
551, 237.58196499513178
552, 216.79032562652355
553, 194.75375828986398
554, 172.52232386907053
555, 150.43819696611172
556, 130.04358227764715
557, 111.39087520013891
558, 87.12169175516647
559, 54.79966836706444
560, 38.31258360753054
561, 45.7768408237589
562, 47.25342261908372
563, 23.109947335389734
564, -1.9320588227637927
565, -6.209991060910397
566, -3.2877148573552404
567, -12.842873905778106
568, -26.49260164909174
569, -25.692083234904203
570, -15.658174776373926
571, -12.162147747947529
572, -12.638738019739321
573, -4.633600766681411
574, 10.290925734585471
575, 13.324963840992496
576, 3.2079898376814526
577, -7.657696714082704
578, -17.153323725884547
579, -18.288122451789604
580, -9.278640248487136
581, 4.2269787238547
582, 20.735367357045106
583, 26.512449905279937
584, 15.005670438380548
585, -1.2531414815966855
586, -14.035028991995205
587, -22.75838202691193
588, -26.62755863459097
589, -24.171293746903757
590, -12.870084168238463
591, 2.4416123135160888
592, 13.613926596250167
593, 21.1883421302864
594, 27.108511156875466
595, 29.965559744588973
596, 25.73392788070305
597, 16.668718560284105
598, 11.561347162576567
599, 11.708285768019778
600, 13.047644289810705
601, 14.534305988854612
602, 12.014584791266316
603, 5.082718183093675
604, -3.315320744017299
605, -12.832350367280014
606, -16.960365656588692
607, -14.371829788362447
608, -11.381859146413262
609, -10.003706041155965
610, -8.417533486695902
611, -5.825742240122054
612, -8.682789030948697
613, -20.98104565862559
614, -26.065169605253686
615, -11.629760743480801
616, 5.567826719967343
617, 10.68041360229654
618, 15.814976341582224
619, 34.97051356436714
620, 57.24125498303147
621, 69.00233302058041
622, 74.2839052981235
623, 80.55874467292779
624, 80.79125678220043
625, 59.12311335681443
626, 24.115640250201977
627, 2.71310084558354
628, -6.645559879852954
629, -7.41631260979193
630, -0.9964175187888031
631, 8.792473798464925
632, 19.356906949573386
633, 14.750049365065934
634, -3.0912804942818184
635, -11.106894444516001
636, -7.635021665229942
637, -2.6186927111193654
638, 2.113502852291276
639, 4.712239803719058
640, 5.152877339765837
641, 6.8301790262594295
642, 10.963010128678434
643, 19.174636004705462
644, 30.50637157229903
645, 39.015870372984864
646, 42.210102191816986
647, 37.16655664177597
648, 22.738658907592253
649, 10.063824821503658
650, 6.170460527604519
651, 1.5597051309123344
652, -10.001196738774524
653, -16.79261836837759
654, -9.894502506071149
655, 2.019918928213883
656, 11.988741496274088
657, 14.752236239530248
658, 5.157102819464853
659, -7.587469222373329
660, -14.457940407579372
661, -11.52531289300714
662, 7.773012103991277
663, 38.17424978884446
664, 67.66303720775431
665, 89.78793100606526
666, 93.4336798958193
667, 83.3966632394604
668, 69.57537893903282
669, 53.622893549178116
670, 38.606931952037485
671, 24.742708180694535
672, 14.760940314554318
673, 7.353049213057602
674, 0.8942576265180833
675, -2.3917751157059683
676, 6.012274035678274
677, 21.702910062400406
678, 24.535832868614307
679, 15.896413677593955
680, 6.641296031371894
681, -1.5018757901725621
682, -9.11545727380144
683, -13.659431789454175
684, -1.1385013907693065
685, 25.332440028070778
686, 36.627755504890956
687, 32.92386628074564
688, 35.25299777483997
689, 44.27850987194688
690, 46.480037869705484
691, 42.205566215234285
692, 46.750948142294874
693, 59.531874016969596
694, 59.23055258739987
695, 44.24584406368376
696, 31.275118226021732
697, 22.481160011175234
698, 11.396516956958294
699, -2.1014364096427016
700, 3.8658156588935526
701, 32.04231495214299
702, 55.47166747522351
703, 68.03026739693814
704, 70.62837522670634
705, 63.27556082273077
706, 43.85251711285855
707, 14.35530644467326
708, 2.744848750782694
709, 13.21070581094682
710, 28.12307748688545
711, 40.444830953201745
712, 43.573826542207826
713, 35.83278594639887
714, 19.514768873516005
715, -3.4792317320134316
716, -18.344353331873208
717, -22.39697743202123
718, -20.077776417227142
719, -12.92602919910314
720, -7.365278302539082
721, -4.574879923917251
722, 1.5192896843345807
723, 13.1877095383079
724, 29.955452753061763
725, 48.89048491381254
726, 55.48019032670527
727, 46.015302952007914
728, 30.749939633684335
729, 13.375890415381946
730, 2.0368054262926307
731, -2.220524662270691
732, 1.3985875501803093
733, 12.324287678411565
734, 14.32869255008518
735, 3.867663252483908
736, -3.6881582723199244
737, -5.5118921434605
738, -10.97193878838334
739, -21.870590257984077
740, -24.16654692605516
741, -14.648831347190935
742, -0.3529836946436262
743, 17.666846793394143
744, 36.011368252236934
745, 51.97119229922828
746, 48.238415271298436
747, 24.53244575791723
748, 16.82223403196258
749, 31.410756102242885
750, 33.752115484963724
751, 19.057518643114236
752, 7.926339192883461
753, 4.035147384660377
754, -4.068524225196597
755, -15.52809718854951
756, -5.044687635028822
757, 26.149309827198522
758, 32.85282788783479
759, 12.632814411588697
760, -2.1401544152522547
761, -7.632808507391019
762, -10.760293736468157
763, -12.226486198631392
764, -9.442617883827552
765, -1.6336442270712723
766, 12.55387740133483
767, 33.37109900954965
768, 54.429184524005905
769, 73.93419223026285
770, 87.22121383529884
771, 91.86374400070781
772, 81.05669858621695
773, 58.48855835869108
774, 37.48456217439161
775, 18.945595867497104
776, 4.593078329397031
777, -2.5005485477977345
778, 8.50206663768222
779, 28.749462196117747
780, 33.195799197352244
781, 26.336195713107372
782, 19.3934728638651
783, 16.636094255407443
784, 21.440071120061475
785, 35.73667798030874
786, 59.61155071479516
787, 77.65714673800176
788, 67.77703423412822
789, 48.50835808857482
790, 43.23605979786589
791, 45.907815895598105
792, 49.90176708717809
793, 48.696060555384975
794, 36.27722583112518
795, 18.896051019120932
796, 3.448036075253185
797, -6.43284399663753
798, -8.254855067261815
799, -5.17471797941289
800, 1.2097212642856903
801, 5.5746186505348305
802, 5.815696331694198
803, 13.473111474697362
804, 33.44829972921616
805, 49.37365092883374
806, 55.41899756195198
807, 47.762186926245704
808, 27.255705197674615
809, 15.193415943220316
810, 16.992127460669508
811, 16.85311487496074
812, 11.849484208678405
813, 4.694390254866448
814, -3.3135905778926826
815, -3.688503167773888
816, 4.164851600520706
817, 17.779475220781023
818, 34.37658084621398
819, 46.811061434180374
820, 50.50349079267289
821, 33.74246067086278
822, 5.671478866608595
823, -8.794875030416733
824, -12.639784888344366
825, -11.591367528004412
826, -6.794399238129699
827, 0.4264553359735146
828, 14.105756819146336
829, 40.04151197609826
830, 62.524739125005
831, 66.50304704935297
832, 60.77211739618724
833, 52.49301699514399
834, 31.85643168435854
835, -6.635459163391715
836, -25.620703275637425
837, -8.43859585809696
838, 16.092594365423793
839, 37.69416123342489
840, 55.24367224699745
841, 68.26629906618837
842, 70.23012204049701
843, 60.51273372691139
844, 47.23940784647493
845, 31.86363206518945
846, 13.256778118240618
847, -4.474635940252483
848, -10.517272399760259
849, -6.230739226692094
850, 1.6383949879927968
851, 8.309063316308311
852, 0.8195765271811979
853, -11.749848544581255
854, -11.564046612076709
855, -5.961162508783673
856, -6.355597159226818
857, -5.368162121669229
858, 5.711069115408463
859, 10.850567061530455
860, -3.6363297862735635
861, -13.708747622953524
862, -5.552608639129176
863, 2.549442345580246
864, 2.9998202581118676
865, 8.349755347775499
866, 22.391053411151006
867, 30.597083408911203
868, 30.398843938615755
869, 30.18477756576067
870, 28.828032193276158
871, 11.843518062079966
872, -14.801512515236027
873, -28.023552527935863
874, -24.11254032704892
875, 4.466689220632361
876, 43.40555138705349
877, 56.10530482621925
878, 45.05097306747939
879, 15.612829727283497
880, -4.780018483273125
881, 9.453098652516019
882, 39.61128893051227
883, 69.0552787430679
884, 74.3681533551453
885, 44.403036850273566
886, 10.516304989088894
887, -12.11322945908887
888, -5.174687724780597
889, 30.647456649606283
890, 43.5749768012538
891, 28.684848575452634
892, 12.980950402508824
893, 3.945516937848879
894, 9.448470193774483
895, 24.114701871859324
896, 30.761126239128316
897, 26.822259572755684
898, 9.138648231176376
899, -9.322555256108899
900, -15.937069945745861
901, -3.724653551567826
902, 33.95607680576086
903, 64.73141863600722
904, 71.080631412412
905, 63.34159626094879
906, 45.81681558789478
907, 21.924522860102115
908, -2.454080597713073
909, -11.900550235332958
910, -6.5749209472414805
911, 3.9365734648399666
912, 17.852267859023414
913, 31.679687696630936
914, 42.55173159735568
915, 48.940484144148286
916, 46.62234084336251
917, 30.080562818487124
918, 12.1329980044884
919, 4.9830385562690935
920, 8.154898384477747
921, 21.91048474309264
922, 43.98945193622603
923, 68.95956248643142
924, 78.65919420844057
925, 71.77895621966127
926, 67.6511061140709
927, 68.6925306579451
928, 72.17854214781619
929, 75.19541018813561
930, 71.16719459464548
931, 62.683603886309356
932, 54.47931113071172
933, 42.59324881302746
934, 22.934135255555702
935, 6.721899667490106
936, -1.9752360518114074
937, -7.3525799206272495
938, -10.865739240992298
939, -7.434867161622606
940, 2.545930731430417
941, 6.250157146082529
942, 3.085173178162222
943, 1.1412585513171507
944, 0.9409392602128719
945, 2.3555208447351106
946, 3.9765784750943567
947, 3.158186902183843
948, 1.5938876615546178
949, 0.5270998959240387
950, 3.4687040576409345
951, 12.42353382307283
952, 19.722060852676805
953, 22.385745734011834
954, 18.115466885780734
955, 7.753968151741901
956, -1.144759792809964
957, -3.8553016069508885
958, 13.552097708522524
959, 41.3840445740434
960, 54.89690265014087
961, 47.66877519638729
962, 13.250000453808752
963, -19.385538374138378
964, -34.72559794106019
965, -29.18442884270371
966, -3.398543505834823
967, 13.338551014518089
968, 17.59204712927749
969, 23.162488838986064
970, 31.790200566625572
971, 42.10320934384981
972, 47.970637946946226
973, 38.03500708289539
974, 17.692440614820953
975, -4.723500420081109
976, -7.469859660751354
977, 21.93826331308628
978, 38.4467413253642
979, 27.198393924943048
980, 9.112135590812613
981, -7.299687079818796
982, -10.52393605189718
983, 2.9215638264240624
984, 40.205443221152564
985, 78.17638055789848
986, 80.87952631682856
987, 66.57013638190801
988, 51.40119077154941
989, 35.555377131890964
990, 19.429289415683343
991, 8.581375575658967
992, 2.642040610492586
993, -0.8955585259618601
994, -2.7416400013553357
995, -3.240372371178637
996, -3.4752566359047705
997, -5.370416132605897
998, -7.468335477129585
999, -8.09385431746523
1000, 0.08125420847591158
1001, 21.149962110928755
1002, 42.32963478685906
1003, 57.41783186203247
1004, 53.15535042318879
1005, 33.3628880370743
1006, 19.23160054825894
1007, 15.399278707195663
1008, 23.2996422930064
1009, 34.53614939788531
1010, 41.7431802004603
1011, 39.988921466115244
1012, 26.99925308186357
1013, 9.497281694996673
1014, -7.891539387203011
1015, -17.500677962817463
1016, -15.954744832041797
1017, 5.719824191536645
1018, 32.90544582847633
1019, 34.36419947494505
1020, 26.217742640595134
1021, 23.46503379598653
1022, 15.218574866842573
1023, -1.57200267650569
1024, -3.5106676981886267
1025, 9.555341217112982
1026, 10.2127728262858
1027, 3.74210943847811
1028, 12.824156863875032
1029, 29.762987833830266
1030, 39.745538568106895
1031, 42.75739916045222
1032, 39.49190681220534
1033, 41.508026645131395
1034, 49.512335309540504
1035, 38.648888619386526
1036, 12.615883809460684
1037, 1.9596474413037868
1038, 4.696010417649632
1039, 14.888017613313423
1040, 30.046367015624128
1041, 45.09002967309971
1042, 44.95265837091483
1043, 24.675211180639963
1044, 3.3340011355994648
1045, -9.77184522567768
1046, 2.4348227544824113
1047, 24.696859298413983
1048, 16.30807971172362
1049, -7.083087881472238
1050, -27.2556647546935
1051, -36.913059471318775
1052, -31.736048609958743
1053, -7.948366280355003
1054, 27.718110935371442
1055, 28.73266538763437
1056, 2.887800454855096
1057, -16.662428580926644
1058, -26.52719086957768
1059, -23.18559001646463
1060, -13.878203317144653
1061, -1.8238349121756983
1062, 15.354853305074357
1063, 37.051158829651285
1064, 49.078862313285754
1065, 51.12592191206568
1066, 46.30561211172517
1067, 41.98707698799808
1068, 50.75165158643995
1069, 79.25557379480779
1070, 122.81469872487469
1071, 153.77127167660274
1072, 163.6440762338625
1073, 147.2216335237572
1074, 117.97908675661529
1075, 105.5960652506883
1076, 98.3722664495399
1077, 84.02918738604694
1078, 69.04691104726226
1079, 56.74344982176535
1080, 55.415800129066156
1081, 58.55244610026057
1082, 61.0617688512466
1083, 57.63906498951019
1084, 39.96252904187804
1085, 19.07175583809476
1086, 5.9297286890005125
1087, 6.161678572255369
1088, 17.452579164664712
1089, 9.934115002398357
1090, -11.40431283547241
1091, -24.550774569926944
1092, -26.59110931010764
1093, -14.187520668884645
1094, 8.701939187992139
1095, 38.25738114427077
1096, 41.02685000531437
1097, 16.614843414771713
1098, -1.8248073439799555
1099, -13.005474204108395
1100, -21.952569556758135
1101, -23.113893834258306
1102, -12.255294007056364
1103, -7.063172413824759
1104, -10.669665971077848
1105, -3.5456703565114367
1106, 13.161145217298326
1107, 27.78367754415558
1108, 37.730014993267105
1109, 42.42438813650824
1110, 45.68796245746307
1111, 49.147318403493955
1112, 50.44214685277257
1113, 48.79869457240329
1114, 43.3884281492501
1115, 32.69243899743742
1116, 14.702119087150095
1117, 6.363351874505497
1118, 14.097397574414572
1119, 8.428804216442586
1120, -10.996367530965472
1121, -17.2253114346222
1122, -11.75351676403261
1123, -1.4833173145098044
1124, 16.483545008662986
1125, 44.18162035660407
1126, 60.91359671794635
1127, 61.816105446549955
1128, 53.85855886454647
1129, 42.715407275674806
1130, 38.2898235545008
1131, 29.023193306101348
1132, 5.972974236551636
1133, -8.624741611850368
1134, -9.012914800913677
1135, 1.1839474844709912
1136, 19.764392504913303
1137, 42.54866535441215
1138, 50.18714728696705
1139, 29.0240779313408
1140, 16.147738853979718
1141, 25.78966181198666
1142, 50.96760442492814
1143, 77.49609438975222
1144, 81.89041937252568
1145, 67.72876610922322
1146, 40.46531269724983
1147, 25.49425827853156
1148, 30.186020366978482
1149, 27.61316797782365
1150, 14.775955818971852
1151, -5.627233068315036
1152, -22.747217399664805
1153, -27.54986932013435
1154, -21.6815606748778
1155, -5.7305379095741955
1156, 18.19848638620624
1157, 49.592150753171154
1158, 81.83289382608746
1159, 94.58396812306819
1160, 75.05603149814124
1161, 49.34029328103679
1162, 27.433513051734735
1163, 21.00701661043422
1164, 28.659276339311873
1165, 45.09581844029708
1166, 41.03924626389107
1167, 3.8044309308734228
1168, -18.926903455319916
1169, -20.87077188317926
1170, -11.761343029367708
1171, -0.05931773699376208
1172, 4.581040421034231
1173, 10.280011351803296
1174, 20.23270448842686
1175, 26.466673698180784
1176, 30.609785064583775
1177, 39.83493743931194
1178, 36.94411671175021
1179, 7.9095222645783
1180, -9.824578741124242
1181, -9.43143941490689
1182, -11.035647757574225
1183, -12.255558092074352
1184, -4.2396488290132766
1185, 10.700177845957114
1186, 28.25427937459972
1187, 23.86416059027215
1188, 1.4578830642722096
1189, -7.667717519766484
1190, -9.640332826652411
1191, -12.929741955437748
1192, -4.7522595340724365
1193, 17.190523717906217
1194, 30.673998868259332
1195, 31.675971260844562
1196, 19.160024700165195
1197, 3.5165977600363476
1198, -6.769439479851826
1199, -5.642604083242077
1200, 7.05357283641024
1201, 26.453713677155974
1202, 46.48446884693658
1203, 56.118892779993075
1204, 75.15897971526465
1205, 108.38514215405576
1206, 135.7821256545967
1207, 143.9759731103477
1208, 113.03297408569233
1209, 66.72779206152518
1210, 23.40431033052755
1211, 5.626900337617371
1212, 7.6806336126392125
1213, 3.898407508847413
1214, -2.9100652427405294
1215, -8.226037086183169
1216, -9.76848540906758
1217, -6.276478470452275
1218, 4.348516078030116
1219, 12.869520050870051
1220, 3.1230478207025953
1221, -4.618041664108205
1222, -2.3183898585493807
1223, 0.2428995414002202
1224, 1.8505862800875548
1225, 3.352089943286046
1226, 5.619724520310228
1227, 8.20739522155327
1228, -0.3797531480568068
1229, -17.217640787309392
1230, -26.77414985085852
1231, -35.76703993951196
1232, -49.819092894799724
1233, -38.45013845307858
1234, -0.09923292713028786
1235, 29.1749932902203
1236, 43.53190449223166
1237, 40.588111714895604
1238, 22.513333059683646
1239, -3.315300714152727
1240, -4.969118183390492
1241, 14.286606326180845
1242, 43.080715554608105
1243, 54.118787907812475
1244, 41.05357796161479
1245, 54.64326865652856
1246, 80.48716049024824
1247, 80.78644549356704
1248, 69.6022421790858
1249, 57.45524153164115
1250, 55.887672311462666
1251, 74.35169938684157
1252, 134.69332385489452
1253, 194.82455253678017
1254, 227.6802610504601
1255, 230.91738790409
1256, 214.36929536358275
1257, 206.57651772345798
1258, 200.0958582022231
1259, 187.64432690935337
1260, 174.92319761080762
1261, 161.81877522485684
1262, 143.21164907352068
1263, 129.79249391162375
1264, 129.7679450969481
1265, 115.22409528363733
1266, 83.45682774371016
1267, 52.6982532612883
1268, 35.26596966375655
1269, 34.08494066091316
1270, 35.25826340818185
1271, 30.855141523719794
1272, 20.16638079985023
1273, 14.723891123565409
1274, 21.95166750599401
1275, 14.598631351253971
1276, -7.602604822121066
1277, -19.24381933416953
1278, -18.715159548661177
1279, -5.7034602896155775
1280, 15.293634995054163
1281, 32.5590486600795
1282, 12.380435828539703
1283, -8.88365500432883
1284, 1.6594418170925564
1285, -0.2175929408695083
1286, -13.688213300020834
1287, 2.6210081262906897
1288, 16.64089435160986
1289, 0.5322919276723042
1290, 4.607655498404711
1291, 26.704831581515464
1292, 22.967477396036884
1293, 16.986800864315228
1294, 25.657291272902512
1295, 17.684483128700776
1296, -3.3709051642199483
1297, -11.802542945840287
1298, -12.94570753555854
1299, -11.157362725579333
1300, -9.524678531382051
1301, -7.606022848276552
1302, -3.3705915895052385
1303, 1.1499546552822721
1304, 5.107572469183651
1305, 9.062055828860139
1306, 10.34793018756045
1307, 4.8468352724994475
1308, 7.509701193261208
1309, 17.407831899102348
1310, 2.142434646053516
1311, -20.743013413441076
1312, -25.95766732354332
1313, -21.157698647262805
1314, -7.490554292363413
1315, 19.905353587532773
1316, 38.330201516910165
1317, 27.935636944480393
1318, 26.60204959274688
1319, 36.67848414040054
1320, 36.87736722950012
1321, 25.42193265996775
1322, 4.7235901048234155
1323, -3.958200399796624
1324, 5.178233602980072
1325, 36.8425649774681
1326, 49.15621491289312
1327, 27.39716365529057
1328, 2.911743562481206
1329, -12.796296071915094
1330, -12.142184965413435
1331, -0.37006123100763944
1332, 15.205911142298646
1333, 12.786215913817614
1334, 9.023670289920119
1335, 18.54988106611654
1336, 17.638668831947143
1337, 5.48340257718155
1338, -6.8593082822089855
1339, -13.35030311767423
1340, -9.982631090180803
1341, 7.443293863177132
1342, 27.830799772435967
1343, 31.918458446223667
1344, 32.737374954059305
1345, 34.952667940958236
1346, 37.967919097202866
1347, 35.81381465992126
1348, 23.918683361708645
1349, 6.453301442881639
1350, -4.903037033720466
1351, 8.975373429094361
1352, 36.02228060655125
1353, 62.538451271060694
1354, 62.624167678620324
1355, 43.143394461858406
1356, 17.14433272485985
1357, -1.1274590452285338
1358, -8.234819488497124
1359, -1.0861407824204434
1360, 5.3612056458787265
1361, 5.747367186590054
1362, 25.63513835647791
1363, 50.68930550040568
1364, 54.489220977466175
1365, 41.06656700943404
1366, 17.552871461435643
1367, 3.180489224280791
1368, 3.3245118630911747
1369, 20.17140338646732
1370, 39.13359248816232
1371, 47.54613442100526
1372, 30.135694154586417
1373, 15.390658824920138
1374, 11.079458857722784
1375, 5.700326433349801
1376, -1.657940783588856
1377, -9.805660306944446
1378, -9.439207094296762
1379, -4.967283292986394
1380, -6.391205223288125
1381, 0.662294768520951
1382, 13.576612205578385
1383, 1.313060105092518
1384, -0.4602245270352796
1385, 29.210571501224877
1386, 27.94354918155568
1387, 13.201280419546492
1388, 31.61082488559532
1389, 43.71523112483192
1390, 40.767423642609174
1391, 39.98763862879787
1392, 26.922026905078383
1393, -1.188364539021677
1394, 3.975012599155889
1395, 28.05216567138268
1396, 38.864455097054815
1397, 32.28489821927997
1398, 11.53191211500689
1399, -10.635061186479106
1400, -17.948632956739857
1401, -6.894354927346285
1402, -3.7138976170399474
1403, -0.45557700042445504
1404, 14.092937446004726
1405, 33.75119387640552
1406, 50.630004295094295
1407, 55.36401039669636
1408, 37.21358090616013
1409, 3.872745277498325
1410, -3.842921943599322
1411, 4.786878865390463
1412, 17.959453984583888
1413, 11.343493091313576
1414, -6.599720484363388
1415, -19.515076596687322
1416, -21.47271441902103
1417, -11.942867146000026
1418, 6.325525194206421
1419, 12.580592699725457
1420, 4.1065936886998315
1421, 13.504216573715894
1422, 18.62842333656954
1423, 5.412780841073982
1424, 10.49309778397037
1425, 29.262896462371828
1426, 44.55465508104862
1427, 50.159596883176164
1428, 42.09367759503857
1429, 16.42598586749409
1430, 0.55574379969039
1431, 4.697028250796393
1432, 28.67127877398798
1433, 39.829443075331255
1434, 19.38420131420662
1435, -8.420394823700008
1436, -27.724244766126503
1437, -24.66814322437949
1438, 6.727625914818418
1439, 47.791087185413744
1440, 56.76591898201514
1441, 47.23477900090893
1442, 27.68659793833922
1443, 6.8911136918623015
1444, -0.23042240827817295
1445, 9.910445394933049
1446, 25.38469443449867
1447, 43.668770419608336
1448, 60.05396701693826
1449, 47.066860359373095
1450, 17.077964688741304
1451, -5.673469839997779
1452, -8.041180112359143
1453, 8.160902223037738
1454, 32.842243181463346
1455, 30.46047855533743
1456, 4.473927455959711
1457, -5.656733090916532
1458, -3.8498693885385364
1459, 6.79284886489495
1460, 23.894266914100626
1461, 24.30384754899933
1462, 4.039299549296629
1463, 16.71715102937378
1464, 33.720126595285365
1465, 24.868844648477534
1466, 10.948052619679402
1467, -1.4932296251008665
1468, -9.478079624570455
1469, 7.267204618619871
1470, 30.907605282884106
1471, 19.65296220498567
1472, 6.365474579856709
1473, 2.652300992110213
1474, 7.491141150436306
1475, 19.035838590639287
1476, 31.354006333428515
1477, 32.35839303067587
1478, 24.13872669207649
1479, 10.945995659607433
1480, 3.808720475682094
1481, 9.595138204434079
1482, 29.14602433500295
1483, 41.42344438715281
1484, 34.54412709922326
1485, 5.487739302585396
1486, -15.483773487183498
1487, -13.484766559042328
1488, 19.39737269035504
1489, 43.81762234520829
1490, 47.657624415496684
1491, 28.097492766786672
1492, 7.411527501519231
1493, -5.049283905541415
1494, -6.028243507692423
1495, -1.9768000689809924
1496, 1.4251787606599464
1497, -2.1264540074662364
1498, 5.985621022639862
1499, 22.093415001503672
1500, 22.57005081043826
1501, 17.872429020038
1502, 10.435622686753959
1503, -3.69760554757886
1504, -6.432208417734728
1505, 2.697322149091633
1506, 4.457505824550935
1507, 5.886520767112415
1508, 11.913849588149787
1509, 24.372322176373018
1510, 31.73839276363833
1511, 26.534431300806318
1512, 5.06293791509961
1513, -10.463845659212893
1514, -7.579149086014695
1515, 18.034708188270088
1516, 31.261281306018645
1517, 19.478031043329793
1518, 20.24946183774682
1519, 15.818350078198819
1520, 0.9915825694115483
1521, 11.207381887738848
1522, 21.669766901394723
1523, 17.166215811238544
1524, 22.774919111403506
1525, 19.70809866284708
1526, -1.482045442882736
1527, -16.89870505732779
1528, -18.059385161576756
1529, -5.446595173617425
1530, -1.4030667758052005
1531, 6.987750154265086
1532, 25.386628094933258
1533, 28.12959758135912
1534, 23.4953935953763
1535, 21.76501759851726
1536, 33.23266333851734
1537, 31.15599428140831
1538, 6.087345716977325
1539, -4.244707040887079
1540, -1.6909518423180998
1541, 9.086944821182442
1542, 21.736914227070883
1543, 20.369892208163947
1544, 1.8921964845421826
1545, -13.535475026920722
1546, -12.415557895674283
1547, 4.321625987793595
1548, 10.727351111749158
1549, 17.17866615424282
1550, 27.250154687746544
1551, 36.28230609696402
1552, 40.341792191859895
1553, 33.321922746857126
1554, 5.071844571417387
1555, -7.629159226476077
1556, -1.94156896892855
1557, -3.7962508132532093
1558, -3.1718627282534726
1559, -1.680769559797227
1560, -9.314821333930922
1561, 2.5604028954239766
1562, 24.570894347114518
1563, 22.06303887701415
1564, 14.288118807193314
1565, 8.72532593730466
1566, 9.620692171359224
1567, 20.6004606751585
1568, 22.564777915074046
1569, -1.8221277850980186
1570, -6.851696472745971
1571, -0.4245590986847674
1572, 4.633250014475379
1573, 25.85520139633809
1574, 34.141739674603286
1575, 17.974383328408294
1576, 39.69366209318332
1577, 54.327642778675454
1578, 42.64273152129863
1579, 50.6456398153764
1580, 57.6074024139898
1581, 61.45187732373961
1582, 88.65412300648586
1583, 84.87184610354507
1584, 51.52156490170955
1585, 38.276773037138355
1586, 24.33217084665648
1587, 8.462531863117874
1588, -3.0574842552587143
1589, 9.377055907987142
1590, 34.298162764788685
1591, 48.49969583628899
1592, 47.376074518363566
1593, 29.273754697884215
1594, 0.5213778719576112
1595, -7.29896022160483
1596, -5.70869847449012
1597, -4.004474805803966
1598, -2.3392997224486862
1599, 9.533417683807784
1600, 26.95997549839558
1601, 24.767914243599535
1602, 8.021651456300333
1603, -7.110345352375134
1604, -1.6479515539490421
1605, 9.673453911044817
1606, 24.696318415192763
1607, 39.57231381373185
1608, 36.036309616220024
1609, 36.23443650089439
1610, 48.51777108950864
1611, 33.24669170665038
1612, 6.237641251774676
1613, -14.836316636945412
1614, -14.68173890166645
1615, 5.0121370607898825
1616, 23.91523188187375
1617, 8.688031918963134
1618, -9.010379116433796
1619, -5.579535048902926
1620, 28.25362666665842
1621, 36.36583331088241
1622, 32.896644271498644
1623, 28.325425001044096
1624, 8.297331423158994
1625, 2.509975529557778
1626, 6.308321901571617
1627, -11.199910108226959
1628, 1.7297352550949654
1629, 30.599405740990733
1630, 38.03291466217706
1631, 43.74483908183902
1632, 37.81938488607875
1633, 18.805851399235507
1634, 17.11906155519773
1635, 9.799842244474803
1636, -3.92329440663525
1637, -3.871923813173453
1638, 1.3336683007983083
1639, 13.810754510496736
1640, 34.09565626255335
1641, 34.13402897232254
1642, 22.14716384102576
1643, 10.59595266209044
1644, 10.638920474679708
1645, 11.099216614332363
1646, 5.217408872858869
1647, -9.16674696866994
1648, -20.411471853869898
1649, -26.535185761969842
1650, -27.95178342855479
##END=



