##NAMES=
##LOCALITY=
##RRUFFID=
##CHEMISTRY=
320, -16.908109568095824
321, -11.894179173434168
322, -8.566513807851152
323, -2.245933149340999
324, 1.3285998192332045
325, -8.670462866266462
326, -26.370205125103894
327, -26.25012823517136
328, -8.18299210078112
329, 4.550474671175834
330, 7.186521003564849
331, 13.339641317050337
332, 30.951117101516502
333, 46.02719535557662
334, 42.54692140722182
335, 29.72254769805295
336, 36.06119368123291
337, 60.12182928010043
338, 76.30375828732394
339, 81.48986316282935
340, 88.36544763596976
341, 101.72932201600452
342, 104.59890522800924
343, 83.00056995615887
344, 50.2245091963905
345, 30.878474218980045
346, 25.751122435600337
347, 23.194671082914283
348, 22.10569872794258
349, 24.987450726321185
350, 32.705341095927
351, 40.25842036168433
352, 46.35761707012898
353, 51.5358058554757
354, 56.39630890734588
355, 59.93003136587686
356, 59.715071586198974
357, 56.153769733955414
358, 51.81327417454304
359, 46.688177510333844
360, 36.08743441175284
361, 18.654060445967843
362, 2.7708108321876352
363, -9.056578230163723
364, -11.57750149075764
365, 3.7653746411106113
366, 29.333054053520755
367, 38.972073626142446
368, 32.10912487742826
369, 14.345898066247173
370, -9.990928744397024
371, -12.432981844332971
372, 17.247514869479346
373, 65.9474644834936
374, 120.85655197713095
375, 159.17463882591255
376, 147.37315870245402
377, 98.60784249528115
378, 52.253141163604596
379, 12.752962408807434
380, -7.102327257272918
381, -7.790008314388615
382, 4.002452778100633
383, 26.961952291374473
384, 37.18597565978962
385, 18.761656612039587
386, -8.049966208307524
387, -15.431972929771291
388, -11.437815900682835
389, -16.402634444635623
390, -29.219679714065933
391, -35.72908092764192
392, -34.85263252734876
393, -34.76833980834999
394, -37.992415939332204
395, -41.87769092824419
396, -45.04302112120786
397, -50.970907274095225
398, -64.08656444150802
399, -79.19558125038202
400, -82.55590374964049
401, -73.21278873660413
402, -47.23626845018043
403, -5.358513562567168
404, 20.748210477519024
405, 25.390199919125735
406, 31.0728693658275
407, 48.809311737417374
408, 80.70906268186991
409, 130.27049670597262
410, 201.46692437878846
411, 299.64870051628895
412, 401.386616784288
413, 496.0194491377806
414, 583.8009357957999
415, 671.7867413559034
416, 759.9383182840211
417, 828.3436322286252
418, 870.238581767002
419, 885.4889704384659
420, 874.0113608984702
421, 849.7539090398132
422, 829.4850769208915
423, 808.4257245576246
424, 775.8823844253347
425, 734.1657737599617
426, 694.1788423860125
427, 654.7737168799413
428, 597.7060376465306
429, 519.814955139449
430, 436.51717544491294
431, 353.84226015413515
432, 270.61744257584905
433, 186.01865308500237
434, 118.94218110354996
435, 63.06300982125504
436, 18.655789029331572
437, -4.81086624022646
438, -13.558442399275009
439, -27.268376674075625
440, -46.041746580816834
441, -44.34160019832052
442, -17.252124155178535
443, 12.894594587192842
444, 39.61786513887455
445, 90.28451471060544
446, 186.71456166503776
447, 287.3032350980957
448, 351.4579044201091
449, 385.9779528248637
450, 405.9798148117188
451, 414.75884312702146
452, 422.7154107175684
453, 428.9799079229033
454, 420.779399034418
455, 395.41957013996216
456, 348.80035900689654
457, 279.8723919566746
458, 204.38803493909654
459, 131.18639531524423
460, 78.0669093731467
461, 44.33408606001103
462, 20.341548352304017
463, -7.135497200037207
464, -37.95580198660355
465, -66.30579813002441
466, -88.97243436131612
467, -81.14303709296473
468, -42.843526223283334
469, -11.034059754687405
470, 7.477465326757738
471, 10.134036580120664
472, -4.381672424937278
473, -21.307975790181445
474, -32.25702188129435
475, -38.000313244527206
476, -38.73892654244628
477, -33.78003954115957
478, -21.15370132614771
479, -3.976560656908987
480, 5.695014178276324
481, 10.890813911239093
482, 27.931998614947588
483, 59.110417910516844
484, 86.03156237796429
485, 104.74585028410002
486, 112.68459091196928
487, 109.00637386193011
488, 108.28374345075645
489, 119.78155577727193
490, 129.16388615505457
491, 121.23847048475363
492, 102.61586362400703
493, 84.77228327299781
494, 63.819405525993716
495, 28.543843802992342
496, -12.40260008470068
497, -35.06785582642624
498, -40.821608983980695
499, -47.486739474061324
500, -58.69527366635157
501, -68.72836325993558
502, -76.12030355609932
503, -71.44722065672067
504, -49.24314913089438
505, -20.5929999284308
506, 7.02170490977187
507, 28.65360920655621
508, 33.8520548594679
509, 28.748212957838405
510, 28.344798628366334
511, 34.49955141290957
512, 52.55405808776959
513, 84.9565767385684
514, 136.44191674506328
515, 195.561529421253
516, 238.67159082240687
517, 262.2683200293177
518, 285.01545976177476
519, 312.2133737103122
520, 324.5153403471286
521, 312.787662075767
522, 288.09065544959776
523, 258.3668824815777
524, 222.79691100006312
525, 180.46142467981736
526, 133.0496646988904
527, 83.44624784775988
528, 44.863191881337116
529, 25.592957622906397
530, 21.403481398287113
531, 21.09231291537617
532, 22.773034313166136
533, 21.903246001909793
534, 18.658418842864194
535, 21.75754340277126
536, 33.68585322638501
537, 55.832852503026515
538, 90.52079487445735
539, 142.64223173334722
540, 203.736317549261
541, 250.1854180060982
542, 264.54606707599123
543, 263.07470234643006
544, 263.79025706703214
545, 264.92339603779874
546, 263.5791682380641
547, 260.08509969002444
548, 255.2944007875485
549, 249.9918624412494
550, 246.6449646611527
551, 243.11600330044712
552, 228.3968236873552
553, 202.4316250139491
554, 174.73835507992226
555, 146.48727855592188
556, 110.28484511268653
557, 65.23922610582304
558, 40.57691332622926
559, 42.21026187519419
560, 52.00191851531417
561, 55.8826788886181
562, 52.44788837952365
563, 40.641084549943116
564, 20.787824271046702
565, -4.681698381509705
566, -24.909095903887646
567, -21.554011582482417
568, -6.102349225940998
569, -2.107179572158202
570, -6.303812133743122
571, -8.770899516548525
572, -10.135311608108168
573, -14.433973367367798
574, -20.15267212937033
575, -15.401342625491452
576, -0.7947080767189618
577, 2.8020430112246686
578, -7.917784543333255
579, -19.42053436396418
580, -28.69243601238486
581, -34.54393026863727
582, -36.63056269097433
583, -30.423316581132894
584, -13.002036096142547
585, 9.206377577600506
586, 32.96689793036603
587, 44.98909588130118
588, 34.171935286165535
589, 18.021746523012553
590, 17.928818862385015
591, 21.8298634155326
592, 10.087284415705653
593, -4.5416977252971265
594, 1.8861224054762715
595, 18.745714807810145
596, 12.779426432080072
597, -6.813499873880573
598, -1.4949234739924577
599, 23.78881392373114
600, 28.09606285008158
601, 12.02542992263443
602, 11.617641316783192
603, 29.435370737572157
604, 37.29025326840747
605, 30.390851410193136
606, 22.603049875873694
607, 17.135266283405144
608, 1.291992168629804
609, -28.22488647947648
610, -42.131283061457
611, -27.767835414277215
612, -14.950696275731389
613, -20.087594153355894
614, -26.188614278018576
615, -21.318410952626436
616, -11.136262324058407
617, -0.21638474086284987
618, 13.290612862725538
619, 31.614479207717523
620, 43.86493336531203
621, 36.09607391577083
622, 21.80887781654019
623, 27.731268592851848
624, 43.44380784044188
625, 49.66879381667968
626, 44.745411523183066
627, 26.075259016544805
628, -0.13792065062261827
629, -13.193052951452046
630, -11.11491159461184
631, 12.970529098918632
632, 53.58469730173783
633, 67.89520930008075
634, 54.35765795228144
635, 36.460542689095746
636, 19.328125417314368
637, 14.07348138589623
638, 20.99102771971957
639, 31.16018837390402
640, 40.00881785480124
641, 45.99368736402903
642, 48.23785244476676
643, 40.03465016589507
644, 19.88937196540246
645, 5.097538087815337
646, 2.783140355386422
647, 1.4754722070883872
648, -4.138863185993614
649, -8.813453489132371
650, -9.814584476911477
651, -6.774999762776133
652, 0.8954512506807077
653, 11.261844550645037
654, 22.21194365116935
655, 29.34180680817917
656, 28.816582521501914
657, 18.46935570470123
658, -3.907771810543636
659, -19.822454574934454
660, -8.497541059012292
661, 9.971227400146745
662, 8.447436474245478
663, 1.572743728345813
664, 11.901159578033912
665, 32.812631080021674
666, 49.18721994768566
667, 63.59875028004171
668, 81.65356449361025
669, 94.47552545939652
670, 82.07894411708367
671, 56.19059268341152
672, 47.52757652598302
673, 48.15887762713828
674, 32.46882419233407
675, 6.610630167728232
676, -5.683455853297346
677, -7.559897177950916
678, -10.88130368590646
679, -13.977305047705158
680, -6.353995820392811
681, 10.000405064562074
682, 21.600770098557405
683, 30.58961046902914
684, 46.156303354000556
685, 66.48918262953521
686, 76.42005117282497
687, 74.77699979630597
688, 65.85329963099139
689, 49.915259554245495
690, 24.947574806399643
691, -3.3141917399934755
692, -15.773925972982397
693, -10.859213106299649
694, 5.73668045395425
695, 33.20558425029776
696, 64.74014728718612
697, 93.85374739833605
698, 110.68868275982823
699, 113.96483733701825
700, 110.19766947156677
701, 101.21829900688681
702, 90.39763020583086
703, 77.6588386560179
704, 54.895173469652946
705, 22.257874727010858
706, 3.192710899606027
707, 0.08024587142244854
708, 0.6434658438520273
709, 2.102663841245885
710, 8.40513059260229
711, 20.172761107049155
712, 24.501481904011598
713, 18.143029681492408
714, 3.105797032809278
715, -17.792366677482278
716, -23.038546066860363
717, -8.308366704279251
718, 0.7797944991107215
719, -1.7965137645951472
720, -0.3507324607180635
721, 8.96316462728646
722, 10.946164111934195
723, 2.104946081106391
724, -1.5921265037140984
725, 3.4100484952286934
726, 5.099106325378671
727, 0.9256588075913896
728, 5.580516661068032
729, 22.56489618611704
730, 30.331438100320156
731, 23.53473379976458
732, 15.890709845907622
733, 10.782813361840454
734, -1.2880969415382424
735, -21.533273920946158
736, -31.023736718503642
737, -25.473871398353367
738, -14.542571815964038
739, 0.22134956146328477
740, 23.27050554530797
741, 52.31280552591852
742, 54.597588473878204
743, 25.102671517093768
744, 1.7272173636720254
745, -5.5061075983066985
746, 3.082661141843346
747, 26.682447220264294
748, 49.12057474930407
749, 64.5071103039918
750, 54.97723335261435
751, 20.19191980132564
752, -8.848808890274086
753, -26.601434339214393
754, -18.261068375282775
755, 15.603724058730222
756, 46.17043856408418
757, 64.69391214268944
758, 64.06008641393782
759, 44.63030352019268
760, 15.751570291711687
761, -14.735470853007428
762, -24.376064785843482
763, -13.210934330458258
764, 5.776296419080609
765, 31.064565172840958
766, 58.314342458303145
767, 82.2667965610126
768, 97.48625061804523
769, 102.73076818771551
770, 95.54824293622369
771, 81.34125652753391
772, 79.5282134356512
773, 86.60814864314852
774, 86.52198487859096
775, 80.173831694412
776, 73.4081631371755
777, 64.5210284283894
778, 48.250564423491596
779, 27.036656131926065
780, 9.794243768070373
781, -1.9127289222960826
782, -2.9961029373425845
783, 6.01811605345938
784, 24.921748054761338
785, 50.042319553349444
786, 69.87931741366992
787, 83.50780509941615
788, 89.7841082192117
789, 92.69367120115385
790, 97.22943839650361
791, 105.34071144619338
792, 119.1118710483479
793, 120.94186842946328
794, 94.60089446038728
795, 58.85554949608013
796, 28.581767152165412
797, 4.797101217014642
798, -15.820363872138842
799, -16.562116989345668
800, 12.57742231935299
801, 40.4096593981285
802, 48.75871942777121
803, 44.32338480148246
804, 30.488223673210086
805, 16.013355234081246
806, 5.735332416212259
807, -1.3638874694388505
808, -5.533289481214524
809, -2.431666899987249
810, 9.192321334880035
811, 27.88325853045899
812, 53.814554638849586
813, 76.84574607785362
814, 94.4929000443899
815, 100.64123917752477
816, 94.20036144555161
817, 74.35813679748753
818, 46.158005384724675
819, 28.143508018221837
820, 19.299985128311164
821, 2.3633404620086367
822, -17.571506866266645
823, -23.173002793320848
824, -16.78984568530177
825, -3.1686668932925386
826, 15.11553476354311
827, 32.1511898565077
828, 40.35196489303053
829, 29.771311466540283
830, 9.04985936277626
831, -11.73186461653495
832, -21.496327528751863
833, -10.548705770295783
834, 4.344458073019268
835, 13.081242925847619
836, 21.15773823028576
837, 29.489725766992706
838, 33.600185111832616
839, 32.36147110926504
840, 36.78380830985043
841, 48.52726964573594
842, 47.06063025172807
843, 30.05411975757488
844, 20.26770324175959
845, 19.371543653458502
846, 10.814930089884001
847, -3.7531401235592057
848, -12.470767777014771
849, -16.21804372135921
850, -20.358967176025544
851, -23.34495651598263
852, -19.452370349688863
853, -11.023382057386698
854, -3.223244129869272
855, 2.516659050261296
856, 3.6540369983686105
857, 4.484396450689019
858, 9.909629302603207
859, 14.984709817568728
860, 15.904014965793976
861, 12.181205611621408
862, 3.683365247970869
863, -3.66942114131416
864, -7.648366782208541
865, -3.3163728132967663
866, 11.260954363251585
867, 32.89605990050768
868, 57.48653783603004
869, 72.55434717159369
870, 75.91178403184313
871, 69.14912719918902
872, 54.159390502314636
873, 37.21323240648417
874, 18.996707891245023
875, 1.647308552357572
876, -7.770802441762498
877, 7.851523769888445
878, 38.22465821561855
879, 63.91168598295371
880, 76.39545192055266
881, 66.74860056313446
882, 38.96740903288992
883, -3.216775221979333
884, -27.414517246295873
885, -19.427657439691757
886, -0.8682641952691483
887, 21.457689004784697
888, 51.41310620013428
889, 84.10185264570464
890, 96.2367555516339
891, 88.3844119475998
892, 86.11191765527292
893, 88.54915853263992
894, 80.90340318782182
895, 67.23979501332906
896, 60.49174095449962
897, 52.47106527203141
898, 28.04710188120589
899, 2.098105920045782
900, -13.224475781580622
901, -11.69260298671179
902, 12.513102646498737
903, 36.480639637213244
904, 45.66238334957416
905, 53.10855586410071
906, 61.156819889083636
907, 41.83196904662691
908, -3.7346684722178907
909, -20.88224843597527
910, -5.90703879321336
911, 24.186333271682088
912, 68.6717573472215
913, 120.33686628376563
914, 161.392326087951
915, 157.4470278957142
916, 123.73922574569224
917, 81.65410086029806
918, 37.573730090904064
919, 0.8765270052936103
920, -19.172606840027584
921, -17.52299939682962
922, 1.124448180635227
923, 35.16634647302817
924, 72.12524646305974
925, 103.1005608054329
926, 120.20451847378536
927, 122.175318543701
928, 109.08997052048471
929, 85.43199529949379
930, 62.294188247820784
931, 43.132100138549504
932, 37.05837328999041
933, 43.52175360749061
934, 58.59959907272787
935, 63.579843562210954
936, 46.554933520250415
937, 14.923300623935575
938, -23.6725753236733
939, -40.078574111561466
940, -29.602462847336938
941, -8.222748258025604
942, 18.657539971218284
943, 34.210655078017226
944, 36.76634165871474
945, 26.46336660686029
946, 13.114612319608568
947, 13.332434092477342
948, 21.180382740054483
949, 31.525032424055098
950, 37.89517384532701
951, 38.500066350216
952, 46.9668609215023
953, 65.33857682855705
954, 67.5994627655582
955, 51.5996113632591
956, 36.38286719282587
957, 24.221729850694828
958, 16.625811037942185
959, 18.533763161502065
960, 40.99736749223666
961, 57.26496966222112
962, 38.7876270912584
963, 6.60472114849108
964, -23.929075044850833
965, -43.41074675472919
966, -47.541953946729336
967, -25.84578699804115
968, 17.43458541997461
969, 37.00160275285634
970, 31.303150423964325
971, 16.938233872719138
972, 4.205702731851488
973, 10.689746949035907
974, 25.60761774045386
975, 34.77073676751934
976, 36.51424786444113
977, 29.950458690287633
978, 18.124439018143676
979, 3.7423958135459543
980, 0.07882412886920065
981, 5.007247096727951
982, -1.9056395050365609
983, -15.662985958252648
984, -15.960980614471737
985, -9.16563178497745
986, -6.215353375390805
987, -2.1490626356489884
988, 7.521441774926643
989, 21.3069795192705
990, 38.89331821658652
991, 52.54065756561977
992, 60.64725764326977
993, 63.33487853293809
994, 63.023259105068064
995, 67.44246362787908
996, 69.64755304237042
997, 55.62651639100568
998, 42.80389021055362
999, 53.51551041924722
1000, 69.87197421994733
1001, 84.06771511017723
1002, 94.59148503331471
1003, 97.50530090376014
1004, 70.76745827307059
1005, 22.758960237177234
1006, -2.0454637944149
1007, -7.6574905025763655
1008, -4.455904280853247
1009, 1.9070782391900138
1010, 5.988217968820209
1011, 5.53003499290935
1012, -0.3646557800893788
1013, -3.577691487015727
1014, -3.0218046823756595
1015, -6.617853331358674
1016, -9.635595707260109
1017, 8.090794170706431
1018, 37.63705806411326
1019, 56.703165396779696
1020, 70.32684907720159
1021, 82.90919349694286
1022, 74.59470204348054
1023, 39.60742371773813
1024, 18.683740145273077
1025, 20.157261493203805
1026, 23.028883446420878
1027, 26.499261784079863
1028, 32.723991470116744
1029, 37.32509043140817
1030, 33.9898261948847
1031, 29.033423410331125
1032, 26.52987934050907
1033, 20.339204786400842
1034, 8.518047744621981
1035, -5.796816679382573
1036, -17.140268096907675
1037, -4.324263215844439
1038, 21.423415717556964
1039, 34.21220363228076
1040, 34.75867020701662
1041, 24.24835424934281
1042, 3.219519234717154
1043, -24.722662653285624
1044, -34.45359318172177
1045, -24.730565265118457
1046, -13.85491758365697
1047, -0.6258785227564658
1048, 21.248701158559015
1049, 32.96999950703139
1050, 14.318734562051759
1051, -5.518245399285661
1052, -12.322963303252436
1053, -16.502277862014125
1054, -17.591149814807068
1055, 1.1091729480604045
1056, 24.125704095347828
1057, 5.149362644258872
1058, -22.12985155511069
1059, -19.599389728209644
1060, -14.881369620348778
1061, -20.75791601997389
1062, -10.19620148400918
1063, 20.064515647920416
1064, 46.39380367232843
1065, 76.06931779973729
1066, 131.030760668943
1067, 189.96307000926572
1068, 236.33601614829422
1069, 268.7335592598474
1070, 287.0544035153498
1071, 297.9452817092797
1072, 303.0281797731068
1073, 301.75009808371215
1074, 293.61266442950364
1075, 277.7003024467649
1076, 256.853687004369
1077, 234.0575175094773
1078, 213.6842931604706
1079, 196.91873290926833
1080, 176.85250532351802
1081, 149.46688016884127
1082, 105.8343617231194
1083, 56.65264441738691
1084, 27.418891309358514
1085, 11.651636128910468
1086, 4.687113624841004
1087, 4.739562045641833
1088, 9.438293909179265
1089, 7.389362821487339
1090, 1.0531627182126613
1091, 2.4341728918907393
1092, 1.4996826239657821
1093, -15.294066710463085
1094, -30.524202483708905
1095, -35.475046474205556
1096, -35.52022257965746
1097, -29.272736874971088
1098, -5.2264877865309245
1099, 19.432057404963416
1100, 6.135324605509595
1101, -5.317733276993749
1102, 14.323271025704344
1103, 18.62050861649186
1104, -1.355781207851578
1105, 5.241930038531791
1106, 28.766564721889154
1107, 20.106415792703046
1108, 8.390137656211664
1109, 29.941494518892796
1110, 35.402454388940896
1111, 7.090489692486699
1112, 0.610355678216365
1113, 16.8941116502765
1114, 19.593722616943523
1115, 11.945069818947559
1116, 3.3882673023317693
1117, -4.431300386429939
1118, -11.372052763200372
1119, -16.31832701683834
1120, -18.36937625149858
1121, -14.027858865368216
1122, -7.709538792450076
1123, -8.405936467397623
1124, -6.834734819663936
1125, 4.0966851781340665
1126, 20.904872860550313
1127, 42.6680729877944
1128, 61.983238405372504
1129, 78.34661326841251
1130, 92.1768138160387
1131, 98.20585219574605
1132, 92.253376988735
1133, 80.42846064843707
1134, 62.685472433334326
1135, 26.869301913233357
1136, -6.507157770191952
1137, 3.1162050830307635
1138, 26.841963882512573
1139, 38.88761779083325
1140, 46.86972404460175
1141, 52.25654287486395
1142, 41.65339434236466
1143, 30.790137533776942
1144, 62.87081563771699
1145, 94.67381047726576
1146, 89.69374627679645
1147, 70.24595775706257
1148, 45.416791391469815
1149, 19.405678316434205
1150, -1.286929358037014
1151, -10.25109133029764
1152, -10.452668448354416
1153, -4.217280357826894
1154, 4.04399077664857
1155, 11.832292796479123
1156, 11.143047634535833
1157, 5.439081348714353
1158, 3.826536951025446
1159, 3.8692474204308382
1160, 4.747973024614112
1161, 19.072363435360785
1162, 41.178627405481166
1163, 35.030203752403395
1164, 14.165426448133076
1165, 6.546225575953031
1166, -3.0431904543374912
1167, -22.29323560036846
1168, -23.811329433890933
1169, -8.0424829037147
1170, 2.5126480473945776
1171, 8.341091538947694
1172, 10.902441816134342
1173, 12.568361582743819
1174, 14.11180528429395
1175, 13.173666230447452
1176, 10.089786089258268
1177, 6.760748603694992
1178, -0.686430660392034
1179, -14.765537569757726
1180, -16.658657762058283
1181, -4.263407541353445
1182, 1.1720133997841913
1183, 4.5813973921458455
1184, 18.875723914779883
1185, 23.307238861546466
1186, 7.2433180326825095
1187, -5.388511350427507
1188, -10.424462783566014
1189, -9.162658417649254
1190, 2.846859738695457
1191, 30.42436861546139
1192, 36.05889143022614
1193, 10.444206567366564
1194, -9.25488875983865
1195, -13.174544033782695
1196, 10.977709778184362
1197, 46.096468403535255
1198, 75.80439354674672
1199, 89.20594654688193
1200, 87.1377514979149
1201, 82.03783429831674
1202, 83.3325247034727
1203, 100.31190175413667
1204, 108.22659517051488
1205, 100.89940871283488
1206, 102.2451974264859
1207, 103.87283095356815
1208, 82.68352505672556
1209, 54.755586073986706
1210, 31.514885330047036
1211, 19.318643101166344
1212, 17.11006158825967
1213, 22.87603584066892
1214, 21.994188181799473
1215, 2.6165751640537565
1216, -11.261292995510303
1217, -13.530974992247138
1218, -8.967835828813804
1219, 2.289199638798891
1220, 20.693076428760833
1221, 23.89022655964891
1222, 4.300698724219728
1223, -13.186078224825906
1224, -25.855053778657748
1225, -34.697064056771524
1226, -32.86929210798189
1227, -16.648599139237376
1228, -3.863741118064354
1229, 1.5176404997546342
1230, -1.0157153394166016
1231, -3.4482697932335213
1232, 1.1429606031160802
1233, -3.6899377620802625
1234, -16.216608367471053
1235, -7.094346299953941
1236, 15.154669903515241
1237, 36.05163761267886
1238, 55.54991404723114
1239, 69.13838315475914
1240, 76.70426913044048
1241, 84.46957809573541
1242, 111.22195243800797
1243, 140.89447242653023
1244, 167.90546221822842
1245, 183.21768683962455
1246, 196.3389917543982
1247, 229.71551091875062
1248, 255.85030356392144
1249, 259.2562910544775
1250, 260.8167252119283
1251, 261.3460674373737
1252, 252.1364116245877
1253, 249.81994223048696
1254, 263.5957792478057
1255, 258.8293402407853
1256, 238.875424621001
1257, 236.4700790422712
1258, 237.60399078957744
1259, 229.92173644728973
1260, 227.71312842635416
1261, 230.3871985209189
1262, 224.18512615148484
1263, 219.0014160001001
1264, 221.81214201033345
1265, 191.8145217451929
1266, 129.9151019344772
1267, 78.42095276825239
1268, 55.941962655496354
1269, 66.71229800733545
1270, 96.93632068708939
1271, 121.62627956162578
1272, 95.32539998775246
1273, 52.614875758120434
1274, 31.615165523418
1275, 18.211031327898127
1276, 6.1577504697715995
1277, -3.9113989772304194
1278, -12.406086630475329
1279, -19.606044050196033
1280, -24.770844684126132
1281, -24.339864411792405
1282, -6.620295990094746
1283, 7.433714051325296
1284, -0.6343505575350719
1285, 3.5106180022867193
1286, 20.437512111811884
1287, 19.46520095173946
1288, 23.52357645106258
1289, 50.41242700319617
1290, 55.056584728579764
1291, 36.9643825735302
1292, 27.496772501594023
1293, 20.682566818943997
1294, 11.398903179405352
1295, 9.207677406736366
1296, 9.762066130453604
1297, -2.306891205425927
1298, -11.612859916808702
1299, -10.883331506750437
1300, -20.059298457610566
1301, -33.888283452561154
1302, -33.16881377336904
1303, -19.830549389112093
1304, 1.5388724262465985
1305, 7.191303489054917
1306, 0.36728570085324463
1307, -6.106944719814237
1308, -7.849067899674992
1309, -1.2926241276527435
1310, 21.155864418517012
1311, 37.28067554606332
1312, 19.289026645957165
1313, 13.266503827814631
1314, 28.592943472595834
1315, 33.564671765981984
1316, 25.657900984656408
1317, 6.224427234496034
1318, -10.411040430784851
1319, -19.338414182288034
1320, -14.128627715017501
1321, -6.086336753583964
1322, -2.0867683030473927
1323, 5.5236705963479835
1324, 23.7318003879991
1325, 60.091398449524604
1326, 72.43813938257517
1327, 46.34103463883093
1328, 16.84555644295051
1329, -4.07112980261536
1330, -10.395489863304647
1331, 6.346855627270088
1332, 38.456508813775145
1333, 43.42650930725358
1334, 36.28573142428286
1335, 31.633848225410475
1336, 14.775848508660602
1337, -6.844812064334292
1338, -14.353765693954301
1339, -12.316055202098141
1340, -2.4982170323564787
1341, 19.597448405941577
1342, 39.09584004186581
1343, 34.606065499338
1344, 24.9708020114831
1345, 15.293229135410002
1346, 0.8776463128442629
1347, -0.5728480213319926
1348, 23.521805306359965
1349, 38.91035345375076
1350, 42.04191397084833
1351, 41.431756352774755
1352, 35.58025886739415
1353, 27.06583430685896
1354, 31.856335332182425
1355, 36.4036202022362
1356, 23.570324481638636
1357, 11.09400863769224
1358, 4.790419140676022
1359, 2.3415681977412532
1360, 2.6689083170031154
1361, 6.3932458943318125
1362, 20.2106906109002
1363, 41.780718890912794
1364, 61.660316098322255
1365, 73.77333195271694
1366, 75.07480306162142
1367, 62.92272230350318
1368, 52.2689354608201
1369, 53.239180490897525
1370, 55.97869328462457
1371, 56.70962694621994
1372, 51.9520478204513
1373, 35.26803064409614
1374, 9.769350408782884
1375, -4.368147974631938
1376, -12.472314005382032
1377, -18.468433856396587
1378, -12.965551856556885
1379, 1.980364917796578
1380, 19.924559745415536
1381, 42.362462771420724
1382, 61.16977872823736
1383, 56.01308315177721
1384, 42.92750592374068
1385, 35.98536717800471
1386, 35.58083867546702
1387, 35.849610266122
1388, 27.199527007720462
1389, 9.4594129666566
1390, -9.730879451955843
1391, -11.956404453345385
1392, -8.832415728548767
1393, -7.432579450120102
1394, 1.733943326269582
1395, 16.139005468719006
1396, 28.57067068655215
1397, 36.73018528742523
1398, 36.382065049566336
1399, 19.00424111152006
1400, 5.3106290973219075
1401, 5.237255554433432
1402, 6.765996283897039
1403, 10.740372903367643
1404, 19.507636889144123
1405, 28.582808668236794
1406, 37.07268525092513
1407, 44.015079436931046
1408, 29.68278445760734
1409, -1.6530251358635724
1410, -8.17964112138361
1411, -9.000361901223187
1412, -14.45009929099615
1413, 9.317874173832934
1414, 37.872210133078624
1415, 30.033066353789764
1416, 18.424181272475835
1417, 7.67095291878104
1418, -11.51899219153438
1419, -12.970194439166335
1420, 8.898688026845775
1421, 26.746408287340273
1422, 35.81164447187166
1423, 37.2788718634456
1424, 44.21517863324698
1425, 52.093615372778004
1426, 52.6214409436252
1427, 57.732414510090166
1428, 62.71300634616637
1429, 50.00962454528144
1430, 30.89334979504474
1431, 12.359028833297089
1432, 0.8350661864433278
1433, -11.870017617095073
1434, -26.84939614828454
1435, -14.99804695599778
1436, 6.3643883695267505
1437, 13.874383361408945
1438, 22.382985485916834
1439, 30.750149580586367
1440, 33.82603406507769
1441, 42.858332364726266
1442, 54.354292480763434
1443, 47.69365021754129
1444, 27.222468964885593
1445, 3.4371971807931914
1446, 6.511700900438882
1447, 14.962033647008866
1448, 10.646238269394416
1449, 11.55546031612539
1450, 10.322155151415245
1451, -2.065773688292211
1452, -4.393975363859681
1453, -0.9865434354796889
1454, -6.603339528376637
1455, 5.8554233553195445
1456, 33.228890534061065
1457, 39.7124113140826
1458, 41.47628664701551
1459, 43.37424658898453
1460, 31.986589768836893
1461, 28.033964644210755
1462, 38.509683129358564
1463, 25.687965306166916
1464, 5.657167309334
1465, -1.7111402960399573
1466, -1.0291600024065701
1467, 5.572666687125093
1468, 16.054372334360778
1469, 22.348261022420047
1470, 22.648966727585503
1471, 17.00700636822512
1472, 3.7123116208358624
1473, -9.106927176999307
1474, -4.422224928644027
1475, 5.328879438266995
1476, 15.005389432376433
1477, 23.162703258274632
1478, 22.72071192324256
1479, 13.193409129045904
1480, 8.266867645826096
1481, 14.028278206739742
1482, 31.627560503652603
1483, 44.96544526494927
1484, 56.55041461575911
1485, 67.32546255038778
1486, 60.7810751976931
1487, 51.639241190863686
1488, 54.02282112114153
1489, 32.60128432273814
1490, 3.9411312366291895
1491, -1.8247591899416875
1492, -2.3626929819274665
1493, 3.3453452612775436
1494, 21.535725250176256
1495, 19.330023908854855
1496, 6.11380918056966
1497, 15.429410580826698
1498, 12.442227779805762
1499, 2.2611339464610865
1500, 19.056269586890267
1501, 13.720301919816848
1502, -12.758154941448993
1503, -12.641411820992289
1504, -6.864805460189018
1505, 1.9704242375137255
1506, 32.68762796847568
1507, 46.41254800314255
1508, 32.9558018754351
1509, 20.110270453062185
1510, 7.97869422871463
1511, -1.7012924490654768
1512, -3.391753708539909
1513, 10.716560432217193
1514, 36.3442504317718
1515, 36.675910969659526
1516, 27.0992255872452
1517, 17.581173928987482
1518, 2.2566432583416827
1519, -2.035608320466963
1520, 6.0858438710392875
1521, -10.206906627731769
1522, -17.852731886974652
1523, -1.7160320152725035
1524, -3.544312173686194
1525, 1.1063302953543825
1526, 24.27938888247627
1527, 27.669068099283322
1528, 18.786914611138855
1529, 7.2439538578410065
1530, -1.0214659676494193
1531, -6.1548438965619425
1532, -7.337161014256708
1533, 0.5297238147850294
1534, 2.3571569781097423
1535, -1.8217729110892833
1536, 33.588121306504036
1537, 48.12440591999348
1538, 13.899028143993746
1539, -3.8970813284731776
1540, -5.963292946875299
1541, 2.6210772768681636
1542, 21.03786563684571
1543, 20.956395611633525
1544, -5.94646714605733
1545, -29.054647624489007
1546, -14.186605984678863
1547, 36.86549111404747
1548, 53.1323793435522
1549, 52.199237955695025
1550, 42.90936802244869
1551, 17.194946400707522
1552, 21.261159919425154
1553, 51.78198158451505
1554, 42.108397373720436
1555, 39.066655793301834
1556, 45.8580779990134
1557, 21.871702199578976
1558, 5.137036743087265
1559, -1.1597608629772367
1560, -20.354494998421615
1561, -19.561085444205673
1562, -3.6561720527470243
1563, 0.031194230023174896
1564, -2.10209168381607
1565, -5.456035075588261
1566, -3.888247989419142
1567, 19.714326445441657
1568, 43.44305294168498
1569, 36.81651004377454
1570, 18.48665392889052
1571, 7.5072763130256135
1572, 17.18073303611436
1573, 50.73701698331388
1574, 93.86566196753756
1575, 127.54721912000514
1576, 155.0750225144011
1577, 171.10098704110533
1578, 168.56152258316433
1579, 136.85548008767637
1580, 111.89517659661578
1581, 101.85103912214709
1582, 78.17235800187063
1583, 61.78837391649449
1584, 51.933297425353885
1585, 29.3616933844105
1586, 21.830250797615008
1587, 15.86973875802778
1588, -15.665384869896116
1589, -10.629945789506564
1590, 9.093846221597232
1591, 6.064827529516151
1592, 23.76366838606009
1593, 29.738919732323666
1594, 1.2189728719649793
1595, -8.468089575470003
1596, -10.135563682646534
1597, -11.067616132919284
1598, -1.1385255152626996
1599, 15.177025749047061
1600, 29.32841369502603
1601, 28.758961583982455
1602, 27.162226224624646
1603, 16.857916544483487
1604, -16.110408681735862
1605, -14.633637923563583
1606, 15.857038847479089
1607, 51.30563651832108
1608, 62.61575968790112
1609, 43.13587511409696
1610, 3.1140061266742123
1611, -12.087209087592782
1612, -5.674633188899861
1613, 7.425009888622299
1614, -1.2609056199416955
1615, -3.379254868953467
1616, 0.29565446653214167
1617, -5.555564515986589
1618, 9.061600138487847
1619, 31.303293235409
1620, 39.229337100854536
1621, 45.52916077221107
1622, 33.98878842248541
1623, 6.621096628851774
1624, 9.961352445274315
1625, 19.20784883214128
1626, 22.822434336401784
1627, 23.80111421042602
1628, 7.0322238535309225
1629, -11.744411164385383
1630, -12.350404692951088
1631, -13.59124556361894
1632, -2.1875461949039163
1633, 24.393911041091087
1634, 26.338025900408866
1635, 17.34031470066202
1636, 12.050962687186711
1637, 24.183109616398724
1638, 32.43334069917273
1639, 35.603027616634336
1640, 37.59830407795698
1641, 26.430871237643714
1642, 19.723004027427123
1643, 19.53666905816999
1644, -11.97126929449314
1645, -27.684985407865952
1646, -18.396953998293156
1647, -4.086207530562206
1648, 16.679619166680368
1649, 22.120173455852182
1650, -3.5240598497703104
##END=



