##NAMES=
##LOCALITY=
##RRUFFID=
##CHEMISTRY=
320, 10.779458719898685
321, -1.5017827083993325
322, -10.57651847771831
323, -14.607955362954272
324, -11.038568935611693
325, 5.6898500071592935
326, 31.21996153857617
327, 41.35484653452204
328, 35.415126982535185
329, 29.507492882143197
330, 27.54490113218253
331, 22.72005261809045
332, 11.29759816773094
333, 2.376423406790309
334, 5.148473509894757
335, 16.427764098620173
336, 27.704367719442416
337, 36.76959572774831
338, 43.571983512101724
339, 48.067636097682225
340, 49.58922112700202
341, 47.88364467102292
342, 43.566916646959726
343, 37.14590305875117
344, 28.835663517537796
345, 19.03439641071509
346, 10.724113777870116
347, 7.257601281132338
348, 9.007582351287965
349, 18.92347865771717
350, 38.485551610412585
351, 58.27181757008111
352, 74.40326422965882
353, 79.47020122723643
354, 65.08335587778765
355, 38.176290946397785
356, 15.399727717403039
357, -0.8047580040938556
358, -11.17959077708474
359, -16.33496793484119
360, -12.79792513718985
361, 0.8193898833978892
362, 10.823872935835425
363, 7.672811124629334
364, 1.3223698636038534
365, 5.534728532252302
366, 15.735866017182161
367, 17.193638142307464
368, 10.521720570302932
369, 4.253210731601939
370, 0.22409525904004113
371, -1.6575693482873248
372, -1.4742888537202816
373, 0.6754243334389685
374, 4.926084712579723
375, 7.812079323046419
376, 4.336425861295538
377, -4.08843610951044
378, -13.60790728710981
379, -22.892063627607968
380, -20.72852366567895
381, -6.01578327707648
382, 4.533599930372475
383, 5.313559331350007
384, 2.9725359212088733
385, 2.0121429942300892
386, 1.6099492370149164
387, 0.27959726920926187
388, 0.3945922895882177
389, 8.90768480033239
390, 22.49670964824145
391, 20.86967523579915
392, 2.5684387104638517
393, -10.471210502480062
394, -12.901367867199042
395, -10.70638991584201
396, -7.089887321444621
397, -3.023201409752801
398, 0.2871200777590275
399, 0.4476264390114011
400, -8.892163821722534
401, -24.177614319761233
402, -25.6451022049705
403, -11.92683592423873
404, 8.183823986799325
405, 33.623662545938714
406, 47.37431025200112
407, 41.76684330065382
408, 27.139760546916477
409, 12.904276810160809
410, 3.5567166224291213
411, 3.879735975906442
412, 14.249215460162304
413, 36.467439071451736
414, 69.80036281534467
415, 91.18337539708773
416, 97.88818091571738
417, 101.2317006534895
418, 105.11382208934265
419, 113.76108596628274
420, 129.80136588355253
421, 144.24006579188062
422, 146.26388938585387
423, 141.42408292402342
424, 142.10181852952883
425, 145.70772040804331
426, 139.96524815698558
427, 124.69311457154527
428, 108.7333452339908
429, 93.66441024912001
430, 72.95042044270122
431, 44.163684127249326
432, 29.4221885014058
433, 39.687273553409796
434, 59.026534522163274
435, 60.93790332039771
436, 50.32664144383307
437, 39.10342419299741
438, 27.68403151530765
439, 15.678077102755196
440, 5.2136604429542786
441, 0.1415342273649003
442, 0.6173285453969584
443, -1.416191770428668
444, -9.221216698615535
445, -13.678995177697288
446, -8.52114889438235
447, 0.6806721338398347
448, 7.253896994582647
449, 12.942374890211795
450, 20.73712952362257
451, 28.32761891470909
452, 31.570860976271433
453, 31.62492492162346
454, 39.13343121565231
455, 54.81056576613537
456, 59.592811044587506
457, 47.43652917948839
458, 32.115499825998995
459, 21.35842836581014
460, 9.371317927668315
461, -8.609526095598994
462, -23.787812036071045
463, -19.402018831931855
464, -3.617437496553066
465, -0.6337659851024
466, -7.998170161348753
467, -7.864853234636939
468, 0.5727190288953352
469, 2.5514305149845313
470, -4.832748346001608
471, -8.45250130864406
472, -3.1704447235733824
473, 4.9718112829777965
474, 12.429601999509941
475, 18.426547149621
476, 22.64238142798149
477, 22.81512782201935
478, 14.605991642014487
479, 1.2906719884340419
480, -6.458982784167347
481, -8.503460599406935
482, -4.227432659059559
483, 6.3062054742094915
484, 18.462536280455424
485, 30.073751721094595
486, 38.22088850797354
487, 41.76093511680392
488, 41.91584509149288
489, 39.46250567271363
490, 33.83144427958541
491, 24.419171563815325
492, 12.69192869442395
493, 2.463429125773473
494, -7.000679211810166
495, -15.98267780133392
496, -23.9827926130165
497, -25.86537976802174
498, -21.769630517397673
499, -15.973772973419727
500, -9.080720583464426
501, -3.787744352982372
502, -0.6309573631051535
503, 1.2936324743341174
504, 2.4767683113323073
505, 4.7443585712317144
506, 9.65118683626406
507, 14.717015646109758
508, 16.694550239784803
509, 21.088675599261478
510, 38.804995344507915
511, 68.88759877870234
512, 98.42487579700901
513, 126.53243084225596
514, 151.93030061297395
515, 172.51713009253308
516, 173.66578020433008
517, 154.40097447594871
518, 142.5357138744057
519, 146.49335799465825
520, 153.92686560580205
521, 158.95484604664307
522, 160.70945139214837
523, 158.56746837991886
524, 143.2171990625302
525, 104.21190210516306
526, 56.93209420481071
527, 33.339126014464455
528, 24.804006590888093
529, 13.528702963752039
530, 0.2361179322233511
531, -6.437140678079231
532, -7.011346396886438
533, -6.025014660663146
534, -4.1806048527823805
535, -2.197682246716795
536, -0.12247690795538801
537, 1.7887928908639879
538, 3.5754512361745583
539, 5.822359446425253
540, 8.37013276156813
541, 9.81361973553794
542, 9.115006369469484
543, 6.654109163416251
544, 3.5174462028680864
545, 4.5012502361441875
546, 18.00878600805936
547, 35.4681849963863
548, 37.77878279905508
549, 28.093926575347723
550, 19.324924801013367
551, 13.01279870561757
552, 12.956730995069847
553, 18.663674998779243
554, 23.175014523959362
555, 24.898248009340932
556, 18.314246151511725
557, 2.5545542341742475
558, -9.165878662026444
559, -13.061985760294192
560, -12.235247421458553
561, -8.079401999922993
562, -4.12265740687144
563, -2.935715225923559
564, -4.030081526765571
565, -7.116658453036507
566, -9.645684419482677
567, -7.527091775360532
568, -1.1181943032752315
569, 8.94051923202096
570, 22.587997603503936
571, 36.018150930364754
572, 45.85422035053034
573, 39.737492866401226
574, 19.636505103626405
575, 2.633926524391427
576, -8.228675766371452
577, -12.102717378977104
578, -9.35394824386367
579, -4.045278120279363
580, 2.9524868646531104
581, 9.05885607298842
582, 12.634013827609124
583, 9.917330399714956
584, -0.8674277943755442
585, -8.63449471129843
586, -6.719185601727986
587, -1.0236072101743048
588, 3.5534993239443793
589, 8.995559529774255
590, 16.811112123143175
591, 21.910129330145537
592, 16.035094931109597
593, 5.455270230797396
594, 4.209312194280756
595, 9.78074610587828
596, 14.991134976226022
597, 18.374257633500747
598, 19.763095060590786
599, 19.426452909054206
600, 18.670353276068454
601, 18.215262963079113
602, 21.453784900897517
603, 27.45065017334491
604, 23.793427430082374
605, 8.915256693133415
606, -2.6122970012247606
607, -8.157490016526026
608, -10.188801403492107
609, -9.501537375303997
610, -3.26852014241922
611, 10.18334066332227
612, 20.219059450756504
613, 20.61478155902114
614, 14.640827038005227
615, 4.644521677158991
616, -4.368428183197466
617, -9.16719403148727
618, -9.762839163126046
619, -5.668698691702957
620, 3.0441170742687973
621, 16.5447282923451
622, 30.170057923945024
623, 36.075835462286705
624, 34.09627003685273
625, 24.217400597980486
626, 8.85464601113199
627, -4.615937312704773
628, -14.476789353832828
629, -12.877460983588207
630, -0.027980160237348173
631, 21.173031825121143
632, 45.091938882511386
633, 46.529190719702456
634, 26.356448365314463
635, 9.579611867612584
636, 1.1351818318498772
637, -0.9430246529173019
638, 2.4659419207082465
639, 7.581937165392446
640, 13.440103921549053
641, 13.671874753713382
642, 7.562091450027765
643, 10.19598072887311
644, 25.95181910976862
645, 36.55003569590099
646, 35.19358712267149
647, 27.045558092746433
648, 14.686967759030267
649, 5.037585170463899
650, 2.3649810529213937
651, 2.6255956765508017
652, 3.420921170175461
653, 3.9695236006791674
654, 3.2861700292151
655, 0.9672619116809074
656, -3.241902852578278
657, -5.336815444365129
658, -1.017868304536023
659, 3.541301480076072
660, 0.6159003892744295
661, -2.9026628273304595
662, 1.9589370689109273
663, 8.669953457630982
664, 6.050021391622067
665, -0.7283107060229668
666, -2.420436485499522
667, -0.8473427109438489
668, 0.5367260211751272
669, 3.9919347091999953
670, 14.776958337531141
671, 26.2454766987712
672, 22.54716369858943
673, 8.37098932095887
674, -0.5945718547100114
675, -2.9925339718356554
676, 5.194300937433582
677, 21.699935873767572
678, 34.72363612737627
679, 40.68607931553015
680, 29.76766309766026
681, 6.451933092958825
682, -6.886117466951873
683, -9.67632873751063
684, -3.881150048165182
685, 7.94557657124642
686, 12.068527106145666
687, 7.419815349652708
688, -1.1385852198309294
689, -10.765701088860624
690, -4.784919186023217
691, 16.782812213550642
692, 33.43227678690437
693, 41.585045851837094
694, 41.3254849448831
695, 33.21177080211692
696, 21.136415110798225
697, 7.515156139564169
698, 5.798275246524099
699, 15.85246493534305
700, 15.416174038556164
701, 2.0959349133881915
702, -2.538999831943329
703, 4.488735417566204
704, 9.282399446251475
705, 8.607834969002397
706, 11.237586911192011
707, 17.219782897484947
708, 14.883185811776457
709, 3.1391935583969826
710, 4.401479618391022
711, 23.075187301353253
712, 38.111586906407865
713, 43.79031132125783
714, 41.506577164183
715, 32.87900588868797
716, 32.79618841158481
717, 44.2591156159815
718, 49.44326017305502
719, 43.58158112505407
720, 34.50462327174591
721, 24.497152862250005
722, 12.161207973107594
723, -0.6914018722909532
724, -1.8822152163875217
725, 10.924653866608423
726, 15.423523060462685
727, 5.953098893513925
728, 0.15133490980770148
729, 2.1360518598139606
730, 4.864410479759499
731, 5.901960528070958
732, 5.210320973832495
733, 2.4852170684580415
734, -5.641887141863663
735, -19.55314730291775
736, -22.553913831531645
737, -10.85219575613337
738, 2.9570372410862547
739, 16.30187287172066
740, 28.578645628879713
741, 38.63359296532144
742, 35.15881913092289
743, 16.83732718473675
744, 0.9469548977776867
745, -8.068030900239137
746, -12.266541236596822
747, -11.245223282016013
748, 5.0517337671208224
749, 36.78132330322751
750, 51.199945295248654
751, 44.08250809389756
752, 39.347733869289186
753, 40.07045947819006
754, 31.40343148136617
755, 13.112857735304715
756, 5.194863291775619
757, 7.6082177049829625
758, 3.196145820993479
759, -8.668835989073159
760, -12.545879152033194
761, -8.465944637919165
762, -8.527669503624566
763, -11.818473334015835
764, -4.973350879939062
765, 10.434465974977684
766, 16.29347223150944
767, 12.520550881472445
768, 8.18464381314243
769, 6.399762687046859
770, 11.923410176128527
771, 24.548190307187724
772, 38.82557721371904
773, 48.68117373130008
774, 36.24056452988225
775, 10.733299701656506
776, 3.0211230837285257
777, 8.342907205539632
778, 12.409177114036538
779, 12.602421536011207
780, 6.523811873659724
781, -2.64407015580764
782, -10.416229755420318
783, -11.95890191097169
784, 2.569158331630206
785, 23.90190264008106
786, 34.00282495175088
787, 32.76426491213442
788, 20.387735727585095
789, 8.09308074956607
790, 10.713591233488842
791, 22.299091856449195
792, 35.013261172724015
793, 42.23656166166438
794, 37.868344042297394
795, 29.137443020006685
796, 21.765007824300483
797, 14.013425183413347
798, 6.219019987462161
799, 4.731168024763065
800, 13.307593583628659
801, 22.782189960560572
802, 26.868668804557274
803, 27.9297544549554
804, 26.755491019993315
805, 19.218921901232534
806, 4.92154621678128
807, -0.546247524730461
808, 6.7482283472882045
809, 24.86530867757574
810, 49.43748094099192
811, 55.97828605494033
812, 41.79839739461022
813, 24.869240591844573
814, 9.380452436796077
815, 1.141243775170551
816, -0.4147535312349646
817, 2.5264416013624214
818, 7.762514830364125
819, 6.891616100101601
820, 1.4529116161074853
821, -1.6373903188095937
822, -3.410515333182957
823, -6.919732080909853
824, -10.205472981370804
825, -8.672424176865206
826, -4.467718200895433
827, -1.18523639878822
828, 3.9842093245451906
829, 14.927692672156809
830, 23.397250699936194
831, 21.12467394398209
832, 13.158555648458787
833, 3.707612742207857
834, -3.2428576420088575
835, -6.020019032982418
836, -4.899300912781655
837, 0.2252777379399049
838, 9.688416783359571
839, 23.825780762858813
840, 33.729214792901985
841, 37.20904211485595
842, 38.8952379987104
843, 39.32470887256568
844, 33.45064604001436
845, 21.186723097310278
846, 7.786571180145984
847, -3.530676932150527
848, -6.9625475688844745
849, -3.5049811579119705
850, 2.4555120486220403
851, 8.83599918404343
852, 9.490041722356182
853, 7.6042623401745
854, 10.836371660403529
855, 15.754328835637352
856, 18.01078541924562
857, 17.153418600113582
858, 12.716923647063595
859, 5.038481588292598
860, -4.991476936314939
861, -10.26656062834445
862, -6.341131741703066
863, 2.3721764400906977
864, 14.300846430123784
865, 28.109153243525725
866, 40.9691844610561
867, 47.68967469495328
868, 47.45344125008705
869, 44.5839830122095
870, 38.5938585290196
871, 22.49943329265443
872, 0.4736925720962972
873, -7.995263053139752
874, -6.357091523142117
875, -6.847526583953368
876, -8.26751832867285
877, -6.699937913589565
878, -1.551729299382714
879, 8.165590147284092
880, 23.20633275700584
881, 42.458831435315915
882, 54.49727108593834
883, 50.76106143616562
884, 33.67379730846187
885, 5.59890976240149
886, -11.668569156207013
887, -12.317996184815456
888, -5.626046144168868
889, 4.509088968441574
890, 4.862395798558282
891, -3.7639379171178007
892, -4.535787124983472
893, 2.990858834935352
894, 13.190037755206504
895, 24.90234305040849
896, 32.800279469509405
897, 39.154194521021964
898, 48.19228871133146
899, 54.57414091868395
900, 51.837571109345845
901, 39.803230291076034
902, 18.571708317889716
903, 1.2861345587280084
904, -7.009207983548549
905, 3.5266223840526436
906, 35.24689213268721
907, 58.50007400794675
908, 63.99389235525723
909, 42.06827572763086
910, 1.3603426536465122
911, -14.208460810014003
912, -6.407375351130213
913, 10.855478812952242
914, 32.10419095909492
915, 43.88811910273671
916, 43.244320175590474
917, 26.708248811866724
918, 9.049114972759526
919, 3.6612990999747126
920, 1.82947965222138
921, -1.096491015349784
922, -2.382453332519617
923, -0.5005574542701652
924, 9.66856118508258
925, 26.892972776124225
926, 29.710865803190245
927, 18.119161543158953
928, 4.611347001578906
929, -3.4708315882462557
930, 7.156633709674679
931, 30.346325374735898
932, 52.51938384143796
933, 60.749184572148806
934, 41.99642006535123
935, 15.442069272278786
936, -4.214760402626325
937, -3.9089843023575668
938, 19.73734242745013
939, 33.782758059001026
940, 30.834113940700718
941, 21.951718735622308
942, 9.026573765113426
943, -7.075346035485381
944, -19.431550912002876
945, -8.4189799569358
946, 10.16172818341829
947, 10.315471022170641
948, 11.419590707324005
949, 31.977658170670566
950, 49.93550116762117
951, 53.20314721939985
952, 44.48876525381547
953, 25.88897884393282
954, 6.8667524703960225
955, -7.558582506371749
956, -8.24347049976268
957, 2.3185074650764363
958, 13.530939524716814
959, 20.17475235653683
960, 14.344971946214628
961, 3.8166511239173815
962, -1.9394815431091956
963, -4.5390799288675225
964, -5.027009749430363
965, -5.244120934617968
966, -5.454628099266756
967, -0.9049729840671716
968, 7.027248585644429
969, 2.5850722454401875
970, -9.712608056299814
971, -10.807338082715432
972, -4.45472097957645
973, 0.3998779651556106
974, 8.452326187336439
975, 24.32468536737406
976, 28.121204343865884
977, 8.815642209374346
978, -3.8440859518855177
979, -0.7489667763470607
980, 3.531172100445019
981, 6.5869704206006645
982, 10.935896646032688
983, 12.304713878068924
984, 0.461589518983601
985, -11.11693981617509
986, -1.903688141247585
987, 19.832413008672575
988, 45.600246369035176
989, 57.377380222852935
990, 47.466576828695906
991, 30.450956298362144
992, 11.845090688389519
993, 0.31413586217831835
994, -3.3201897542280676
995, 3.0771063560450784
996, 12.50798238928246
997, 10.099604382441612
998, 8.276992534064448
999, 18.73890320819646
1000, 28.017034901196894
1001, 29.505204841556406
1002, 30.87722828626829
1003, 34.773996983361485
1004, 42.22798478951472
1005, 49.56940317291628
1006, 43.567678619001526
1007, 25.813643010959368
1008, 1.5384693838318526
1009, -13.982415738173586
1010, -6.763754886438619
1011, 11.336547119791248
1012, 34.352304572845696
1013, 51.76873399481701
1014, 59.984782339528465
1015, 55.05793932461938
1016, 43.72261022685325
1017, 49.5375540684081
1018, 59.60463874790548
1019, 48.16738660807869
1020, 28.26437546659554
1021, 12.331397808375186
1022, 2.491346564808282
1023, -1.8906779830458618
1024, -2.1287868048002565
1025, 0.17433344839082565
1026, -1.301600345611405
1027, -5.595957906738477
1028, -8.0273401630825
1029, -3.0207784679882934
1030, 17.438196709376825
1031, 32.57436593734019
1032, 28.304898059152492
1033, 15.347309353524906
1034, -0.03521922527534116
1035, -1.842370885807668
1036, 8.707126755979061
1037, 18.457444516194755
1038, 24.23217510252198
1039, 24.018722798961335
1040, 21.410949677949247
1041, 19.9063129343308
1042, 24.63500284213069
1043, 35.483971659112285
1044, 29.363491311547932
1045, 7.76069995795342
1046, 1.4725962396123577
1047, 4.093063037419597
1048, -4.0819872190750175
1049, -14.202404504060269
1050, -16.073812900181565
1051, -17.082951883458463
1052, -20.252367528087234
1053, -15.580666042453231
1054, -4.314785174126428
1055, -6.837256927747148
1056, -19.394126703386064
1057, -27.206375154493344
1058, -25.91684412091172
1059, -10.66211813878681
1060, -6.6461322979575925
1061, -25.801269329995648
1062, -39.61090243934814
1063, -41.40092578996337
1064, -33.861251940249076
1065, -17.67207414590075
1066, 6.187755678350641
1067, 28.801741094460795
1068, 40.03677532278061
1069, 56.89282718105642
1070, 89.98831531509632
1071, 147.18278793113222
1072, 232.56466588768853
1073, 319.1514393503112
1074, 403.1519414361669
1075, 479.5625835608689
1076, 542.2650102933749
1077, 585.340226713568
1078, 607.8137724303556
1079, 608.3639239939616
1080, 579.8236490510453
1081, 524.246987138954
1082, 454.7195294252042
1083, 377.85730202177365
1084, 303.0285961207187
1085, 224.21894326521078
1086, 137.2189326438306
1087, 65.86110993351804
1088, 10.758263613668532
1089, -9.302491780878427
1090, -3.6031655502461035
1091, -2.367029465482119
1092, -9.585332528799427
1093, -28.560549941334557
1094, -38.886059943871714
1095, -30.58702622364308
1096, -17.965202540183327
1097, -5.654097393523898
1098, -0.3418977538735817
1099, -4.255095445553707
1100, -21.341827884115446
1101, -32.19079519878824
1102, -21.68268613378814
1103, -11.10493543245775
1104, -6.091412879786276
1105, 3.640546208572232
1106, 13.604063289946225
1107, 6.3653773002638445
1108, -5.8285322252272636
1109, -8.437976619919937
1110, -8.365012946029765
1111, -8.141709341548903
1112, -1.1651177505741543
1113, 9.83442941465546
1114, 8.377292013106398
1115, 3.283695151639222
1116, 10.183921707872287
1117, 17.038828327475585
1118, 17.07401155142952
1119, 18.57993136750656
1120, 20.978382323082315
1121, 12.110614631565113
1122, -1.2542120045504817
1123, -4.34717175552305
1124, -0.5128626344908298
1125, 7.290471981251358
1126, 7.463455753317248
1127, -1.2579493018279209
1128, -6.403535325332086
1129, -4.431767870824842
1130, 9.813831331784058
1131, 28.66835693646999
1132, 42.40193829032978
1133, 36.75220161371726
1134, 12.370674256342227
1135, 1.7863819222297934
1136, 4.932484783823838
1137, 13.985026407812711
1138, 23.671702727028787
1139, 27.585502932884083
1140, 32.21390349659896
1141, 39.15519758532946
1142, 43.676155713367734
1143, 43.58545737617351
1144, 35.56112752623267
1145, 20.738637000546532
1146, 1.2240839625442277
1147, -5.432338679080658
1148, 3.3862555536652508
1149, 11.705136237875195
1150, 14.575953020888392
1151, 7.38923360360468
1152, -2.094480466377263
1153, -8.248384957598773
1154, -3.436819819817174
1155, 12.739203902220197
1156, 26.751839299193307
1157, 32.56343977139295
1158, 22.088846986781846
1159, 10.9259150886096
1160, 11.522248579898132
1161, 20.376987917653423
1162, 30.41018641159917
1163, 21.97843896625045
1164, 2.7819989655504287
1165, -10.971424131402273
1166, -17.898848617168824
1167, -17.597548936522344
1168, -14.17296533408171
1169, -5.949902049391767
1170, 15.477966180850672
1171, 36.09907811508492
1172, 36.695157091711735
1173, 24.61407252314075
1174, 6.318180935981218
1175, 1.8405441847344264
1176, 13.854607637991194
1177, 42.45721853198529
1178, 60.84585234833048
1179, 47.18592958772024
1180, 29.11896574244838
1181, 18.363800084639934
1182, 25.761352746822013
1183, 40.41647027198633
1184, 44.15370980012358
1185, 30.691728588078604
1186, -0.22647144367101646
1187, -15.680675972644622
1188, -13.655364062987701
1189, -8.047658365469488
1190, -1.4661052573765119
1191, 4.019982579914085
1192, 4.353129067110331
1193, 0.8087192958887499
1194, 10.722368243094934
1195, 22.671899624833713
1196, 8.246081391802818
1197, -6.905273871210284
1198, -6.3851953206012695
1199, 5.162288250092388
1200, 25.395659848226387
1201, 46.344320970936224
1202, 54.82675696728484
1203, 37.03196438369969
1204, 31.13163865718934
1205, 46.556616378626586
1206, 45.90390641497606
1207, 31.51351277033791
1208, 18.786696314737583
1209, 7.592360788960832
1210, -2.829892960825873
1211, 4.385200396994151
1212, 25.000154874177497
1213, 31.332312796253063
1214, 30.030732577860817
1215, 29.688188629934302
1216, 28.331450517771827
1217, 23.94787859331973
1218, 10.882144033972963
1219, -3.2213838420702814
1220, -8.697146732076362
1221, -9.0511755168327
1222, -5.228512835649326
1223, 7.507210261893761
1224, 19.895968737514067
1225, 9.115308163354257
1226, -5.261564621307116
1227, -8.995756592067664
1228, -1.2892454896664276
1229, 12.652556824992189
1230, 14.503197738788003
1231, 2.358759475901934
1232, -21.92695648545714
1233, -26.009073491327854
1234, -7.632010105102836
1235, 0.12118311354470279
1236, 0.9760319712922865
1237, 3.4336823432849997
1238, 3.99238089471055
1239, 4.732480016631143
1240, 24.038766972631493
1241, 42.74646568025764
1242, 25.914267914191896
1243, 8.702810436025175
1244, 10.167982520381884
1245, 24.776769906865866
1246, 41.14620756621525
1247, 40.15020898507282
1248, 28.866760660187538
1249, 13.478439095250906
1250, 5.207496932042886
1251, 6.3210916520774845
1252, 19.229390755388977
1253, 27.62390610447892
1254, 21.20847248981545
1255, 15.316660315167155
1256, 14.69426150964955
1257, 17.660358510749575
1258, 24.861630461164168
1259, 36.98178580924014
1260, 46.91363629855459
1261, 57.504969006647116
1262, 81.22439038407674
1263, 91.76054711383495
1264, 67.14616618651644
1265, 53.92277407481333
1266, 58.36377135564362
1267, 55.75638986486092
1268, 56.82897361124242
1269, 70.70705971112648
1270, 49.87905315776197
1271, -0.3365376972924423
1272, -12.850282614862408
1273, -3.9601802568704443
1274, 5.474447528094515
1275, 6.630059171549874
1276, 2.3044011473512
1277, 11.229936992246621
1278, 30.285293867913424
1279, 51.263750130523476
1280, 55.244476099955136
1281, 39.26318763147992
1282, 12.55899035391485
1283, -5.3061489259898735
1284, -1.2587597312799517
1285, -0.5231250867136623
1286, -7.504780143072367
1287, -13.87752296105009
1288, -8.1559286626225
1289, 18.214248031202715
1290, 42.90228438196709
1291, 53.61158969025519
1292, 33.77301992830553
1293, 11.885111569175024
1294, 9.909712256405783
1295, 7.1350993263240525
1296, 2.3451334912037964
1297, 4.215602141730415
1298, -0.5486478855441419
1299, -16.572864531312916
1300, -7.605704144716583
1301, 18.3320194550397
1302, 28.733468302461006
1303, 31.831967679311674
1304, 31.452308812662977
1305, 19.641980050368147
1306, 2.88611998405122
1307, -5.717688571878625
1308, -10.93984090266531
1309, -12.617877246537319
1310, 0.7902057090864218
1311, 17.776881705492087
1312, 19.88954414024829
1313, 14.007065262739161
1314, 2.7692040434844785
1315, -13.122641235712308
1316, -16.227757847636894
1317, 8.328478879562226
1318, 25.176416021306977
1319, 25.256805341025483
1320, 14.360266859677722
1321, 0.22765780201643793
1322, -8.984352814812155
1323, 6.454024869385648
1324, 36.51765572295653
1325, 50.502600196192816
1326, 55.39102270448029
1327, 54.081242023050436
1328, 41.45750146652017
1329, 23.415389493383373
1330, 8.660686220266143
1331, -4.984268273394719
1332, -12.689829720024136
1333, 8.987394771279924
1334, 33.684754979179615
1335, 34.63053769825092
1336, 21.215755595264
1337, 2.409598468733293
1338, -6.579061341069519
1339, -5.540452303708662
1340, 4.104305041567841
1341, 13.383467377352645
1342, 12.742139198637688
1343, -6.605588317755064
1344, -6.171584782606715
1345, 14.79825355726598
1346, 11.444824572705329
1347, 6.292439848653885
1348, 18.985852283438817
1349, 20.653647007873133
1350, 14.342594214175733
1351, 18.82558888617359
1352, 16.479655082940553
1353, 3.4063591040489882
1354, 4.661142005435067
1355, 13.713353746066787
1356, 17.714980187020046
1357, 7.16786653608051
1358, -9.186988038818527
1359, -4.3923109355268934
1360, 11.953659870090632
1361, 31.76501337089985
1362, 41.04291495016332
1363, 33.530646251047074
1364, 5.482665368660491
1365, -0.5391083500298919
1366, 18.406865250444298
1367, 25.76754476846645
1368, 22.79031151892923
1369, 12.763866787988718
1370, -2.104586768754416
1371, -13.13997096528692
1372, -8.022360510786712
1373, -1.6051114202050485
1374, 1.8085524350126434
1375, 6.912568554326754
1376, 15.68354977072022
1377, 25.352300263084544
1378, 14.119516017895876
1379, -4.430601076028779
1380, -0.6138595429938505
1381, 10.238908507426913
1382, 23.91925309061162
1383, 43.55873132253282
1384, 50.458667613738726
1385, 33.425736166076604
1386, 19.39290951986868
1387, 9.360442262095148
1388, -2.066684973322026
1389, -9.639766129044347
1390, -10.409606268931384
1391, -0.6143948639241898
1392, 7.405731356441265
1393, 7.006472833526459
1394, 10.411860440532564
1395, 16.63074048974886
1396, 20.729820959239078
1397, 32.38282615877506
1398, 45.23533846613145
1399, 35.91404217768422
1400, 25.724808129064968
1401, 25.55555819751953
1402, 26.777191283757475
1403, 27.34493384222378
1404, 25.345281872476335
1405, 12.66867156214812
1406, -0.2694716906694339
1407, 6.190826689816731
1408, 23.105676248842883
1409, 40.178617797498646
1410, 39.491957621123674
1411, 21.91852551835109
1412, -4.799505311848407
1413, -5.30685564451187
1414, 12.793318818812168
1415, 32.01829761400222
1416, 33.57677980381732
1417, 19.482484710872995
1418, 6.003452458414813
1419, 9.077872979243239
1420, 28.13471103734946
1421, 32.81649195945238
1422, 31.88997393670934
1423, 33.513874311420295
1424, 31.036174386835683
1425, 18.214217902442215
1426, -8.821216570752313
1427, -14.564848439511934
1428, 0.8085148961408777
1429, 16.31465939261261
1430, 25.497561159031648
1431, 22.16435628680938
1432, -5.886461534751106
1433, -17.85427748183338
1434, 5.505173946025934
1435, 10.620467255272615
1436, 1.68925633660956
1437, -4.7089198327016675
1438, -0.3285301898013131
1439, 18.520125472414293
1440, 51.69710054481811
1441, 60.901485154174225
1442, 38.84359832128075
1443, 4.649474262514559
1444, -14.042898141436126
1445, -8.496547334807019
1446, 6.962510570996528
1447, 18.76314358009313
1448, 16.239843649746035
1449, 6.001210558453749
1450, -1.0454785340953094
1451, 3.7341087040213097
1452, 1.7688439637468036
1453, 0.27149945557721367
1454, 19.053965626290847
1455, 30.524264937134376
1456, 24.92675051438755
1457, 3.181577832236144
1458, -15.382062809655508
1459, -19.692780765200496
1460, 1.9778116274319473
1461, 24.937284239800647
1462, 30.654795959615058
1463, 22.17461615956472
1464, 21.14303870501635
1465, 44.18999040447534
1466, 51.5845224162631
1467, 36.757463449907846
1468, 4.986269477510632
1469, 2.5763010050959565
1470, 24.879524526027126
1471, 43.20347032393511
1472, 49.39181738404113
1473, 36.482321329386195
1474, -3.202071216772765
1475, -13.515162595007496
1476, 11.273228660514178
1477, 22.911572382487066
1478, 39.296210346679345
1479, 60.918068413781384
1480, 58.13792975102706
1481, 54.249629780811574
1482, 59.87438488604357
1483, 41.06480004918512
1484, 14.872370828673866
1485, 1.309089853927162
1486, -0.6929958362838988
1487, -0.12962858541777678
1488, -5.871927154133573
1489, -13.395781922998594
1490, -14.379514768956597
1491, 0.4767174035396238
1492, 20.318939289410082
1493, 29.16395517084584
1494, 9.54122271820188
1495, -0.9893532502796916
1496, 6.4565295226157104
1497, 29.499367990634255
1498, 40.98749428205656
1499, 35.90553147859828
1500, 22.89673990959409
1501, 6.419083880837206
1502, -7.288329288341629
1503, -9.6602689659303
1504, 3.290367789613356
1505, 25.853804478331767
1506, 33.767780615759875
1507, 22.316707429420603
1508, -1.4811681390201556
1509, -11.328456908396674
1510, -1.926210248958796
1511, 21.890233490946684
1512, 32.960620517666484
1513, 19.73226447922798
1514, -9.587682084264088
1515, -7.354748835518421
1516, 1.0604415109796719
1517, 1.0686247520729921
1518, 4.6858005858043725
1519, 1.983106164576384
1520, -7.508026338906802
1521, 1.3349382694004817
1522, 8.547795229108488
1523, 1.7256410695968043
1524, -2.9677136656300718
1525, 1.1239873165250174
1526, 11.711591144467093
1527, 1.4793014350807425
1528, -4.457114346325852
1529, 7.838665739982389
1530, 16.769245329370733
1531, 29.942051790329515
1532, 45.56904205841329
1533, 23.648662787521516
1534, 2.4549968743340287
1535, 4.79868493214417
1536, 1.233603251837394
1537, 0.6918528909509405
1538, 7.22053688622691
1539, 3.7330502082545536
1540, 7.705774346653925
1541, 22.372570931005612
1542, 15.758351319755548
1543, 3.19121013716358
1544, -4.287148200334741
1545, -8.96083583111249
1546, -2.2683943360352714
1547, 10.499736699736786
1548, -5.831690053754755
1549, -19.87285775726332
1550, -14.520498814802067
1551, 11.354080208061532
1552, 37.74847820411742
1553, 45.095847790296375
1554, 10.329942271361233
1555, -18.75618064628725
1556, -26.032054003765097
1557, -15.950638305340362
1558, -1.8123155845205474
1559, 10.085126330354797
1560, 15.060370244429123
1561, 15.79407476473125
1562, 5.700616604161041
1563, -25.04066209843222
1564, -45.93822610892357
1565, -45.31499698900552
1566, -20.36255421373744
1567, -3.214884339524815
1568, 0.4158893997419
1569, -4.769616567222329
1570, 5.139098828289207
1571, 22.314645171050415
1572, 35.81888607359906
1573, 53.48635481600377
1574, 97.75582800837947
1575, 178.55939393327435
1576, 240.07272275974992
1577, 293.18403929298165
1578, 349.86612707979566
1579, 414.8878998308569
1580, 486.8712524127591
1581, 550.4066066734263
1582, 566.6965668227926
1583, 550.5319532461067
1584, 519.1805849351017
1585, 493.1003394769009
1586, 450.7776743245504
1587, 384.2562094068694
1588, 294.59478599505746
1589, 205.70428395074532
1590, 127.44149844015101
1591, 75.22504054123237
1592, 28.430090430312703
1593, -14.097764849153464
1594, -43.78395695417339
1595, -31.023501006387505
1596, -8.127854542503883
1597, 2.71655978641229
1598, 0.8914156470864327
1599, -6.141376545659114
1600, -13.958725559038612
1601, -19.362262226696657
1602, -16.922532453570966
1603, -9.15435364452378
1604, -3.148374632613013
1605, 1.2572663696578275
1606, -5.38790465394959
1607, -26.627231933923667
1608, -17.569271284522983
1609, 4.486945514187937
1610, 23.954517378223045
1611, 46.23864064589134
1612, 55.528533058878565
1613, 45.39478212581025
1614, 22.38261624372808
1615, 8.883053237761942
1616, 9.423393759270766
1617, 15.995901272018727
1618, 18.146846494001693
1619, 10.411568009846633
1620, -4.613078790883719
1621, -1.7153962926208806
1622, 12.974694708909738
1623, 27.633136029742218
1624, 26.200157008102906
1625, 14.109214694568436
1626, -0.8115160298302726
1627, -8.501760758395449
1628, -10.55556848308288
1629, -7.1613172582488005
1630, 2.4011631742559985
1631, 18.712454743862054
1632, 39.88719309977114
1633, 60.93836617298348
1634, 79.57907673766249
1635, 75.98478698432655
1636, 56.16740885540048
1637, 51.37792599202385
1638, 41.39116323334929
1639, 36.547079133608804
1640, 49.49239448749677
1641, 30.60342685904061
1642, 1.4490635451729759
1643, -14.641887434943328
1644, -14.338337321513336
1645, -12.854407576285212
1646, -10.11175046417975
1647, 4.950119869198261
1648, 17.757948796329856
1649, 24.55880596412544
1650, 20.191784865546197
##END=



