##NAMES=
##LOCALITY=
##RRUFFID=
##CHEMISTRY=
320, -22.576658825254526
321, -11.644202777791179
322, -1.2443898470264685
323, 1.5270554096250635
324, 0.9628921607290977
325, 4.055896036062222
326, 8.74643072193794
327, 6.9615370084711685
328, -1.085248824455448
329, -5.6816381244198055
330, -4.861306764604706
331, -0.7652801263620859
332, 5.796573508820984
333, 11.964035828060332
334, 14.020511944704594
335, 11.94462204991396
336, 5.711975973643348
337, -2.723146189475301
338, -5.628858693045004
339, -1.89278464493691
340, 7.495777769350752
341, 22.937747399062573
342, 35.7016759357939
343, 39.220247787167864
344, 35.52264582317821
345, 28.36604854093366
346, 18.496745425681183
347, 8.508490684442222
348, 0.25895834217044467
349, -0.10845996875195851
350, 8.714691099852644
351, 12.434488800871804
352, 3.6803929134675855
353, -5.698131328616
354, -3.640714501822913
355, 5.211202973294348
356, 10.08594051520322
357, 11.559885668046263
358, 17.75017648731773
359, 28.73181900331474
360, 30.865554619814247
361, 20.11060010703477
362, 7.973752877114748
363, 2.482087317080186
364, 0.9448210809878219
365, 0.2762532185715827
366, 0.031535101165900414
367, -0.8208015100572084
368, -1.2880125227902681
369, 5.259696747461021
370, 19.72109981714857
371, 28.373991921728702
372, 26.732202753257297
373, 19.93479739988743
374, 11.523858280139393
375, 5.418570513964369
376, 5.077373203036586
377, 10.685738366656551
378, 23.34116870993239
379, 39.694426128111445
380, 45.75198568253654
381, 39.67345112245221
382, 29.479029730018738
383, 17.955912780084873
384, 7.639384199262167
385, 1.0103259663956123
386, -2.643262682326167
387, -3.756126832395239
388, -5.244424520297798
389, -14.990871401276308
390, -31.04769969717563
391, -36.45488677758931
392, -29.720926672889618
393, -20.724464360974707
394, -11.850370860820476
395, -2.5706993095827784
396, 7.827833671508415
397, 12.04794751468853
398, 0.9495408004759156
399, -16.139984821849794
400, -19.285296827951242
401, -12.007827024299331
402, -11.945215578855823
403, -19.589055930582617
404, -19.11318457577181
405, -6.604651024447776
406, 9.746069527538566
407, 27.104844140873865
408, 49.77701453831378
409, 82.36722390110026
410, 123.00950335339621
411, 154.32937197365936
412, 179.6532519061202
413, 210.56927473077576
414, 246.9028284658125
415, 281.6361929012546
416, 313.56520896734855
417, 343.4368654709888
418, 371.3832266037516
419, 388.31594791319003
420, 388.58430416093506
421, 384.29769082010716
422, 390.01401361686385
423, 398.4145723615984
424, 393.17478002269854
425, 378.2750088747498
426, 372.1870574126806
427, 374.23207954605004
428, 363.55075008895346
429, 336.52729676322724
430, 310.75038073311043
431, 292.96426913096275
432, 263.79810543450094
433, 209.64054257022053
434, 143.295060577424
435, 81.77766979914668
436, 37.315996546441966
437, 14.826645879466923
438, 8.999678922592466
439, 4.69255758973577
440, 0.2749189095784459
441, -1.2114070268571595
442, 0.6761730630032616
443, 2.719312710345548
444, 3.7999315817623938
445, 4.126551758553433
446, 3.7999527596093685
447, 2.6415228854557427
448, 0.35341611709463905
449, -2.3048921632826023
450, -3.4393212423865407
451, -1.4100407937139607
452, 10.297665740106822
453, 31.549209287589292
454, 48.23115631344808
455, 58.04369333773229
456, 63.53928205114153
457, 65.46829023073406
458, 58.98223554713604
459, 41.36062572158244
460, 19.262723309408102
461, 1.1678049279526022
462, -10.574752446612365
463, -9.965505723966999
464, -1.9271500245104107
465, -0.412336143617722
466, -4.5137102729777325
467, -6.352309173084905
468, -5.351558446940544
469, -4.659637385373571
470, -4.89685331486362
471, -4.131305625072855
472, -1.5488599601831083
473, -1.6246340794059506
474, -7.506650998428995
475, -15.31009308477769
476, -20.684155409216146
477, -22.513078731046335
478, -17.81610512366842
479, -9.05065441228544
480, -4.710083620475416
481, -4.20786839637276
482, -3.2217249113627986
483, -0.7274806718887703
484, 6.474965526199412
485, 19.56065201234378
486, 32.32993721734874
487, 42.55618481750844
488, 48.23613269079124
489, 48.09615731028316
490, 43.41809901443594
491, 35.56036734996087
492, 24.530741732518436
493, 10.342228734883065
494, -3.921884315212992
495, -14.077797031954105
496, -19.848859875829476
497, -17.56709816014063
498, -8.035242116390691
499, -1.4520592481467247
500, 0.43608228567154583
501, -4.5286619645276005
502, -17.218383933348377
503, -25.749628316749295
504, -24.465430254614148
505, -15.683468088146583
506, -0.42334418811788055
507, 16.467933682828516
508, 28.621810169095625
509, 41.01206474720584
510, 62.32577714524359
511, 86.81200272487513
512, 108.93005428293873
513, 127.75252529752743
514, 140.70917178634772
515, 148.26391113676073
516, 156.35229685185823
517, 166.34740385268378
518, 180.296461624117
519, 198.54324491941134
520, 211.50018520186313
521, 214.56894945037038
522, 202.31661479885497
523, 170.84172629643945
524, 130.1199866969955
525, 91.3430805773869
526, 57.49703584316285
527, 39.42062479771721
528, 33.764024852076545
529, 35.854035097196174
530, 44.205303472920605
531, 49.66813783107773
532, 51.14065550471423
533, 45.37332433634856
534, 32.82491473178743
535, 22.247180516039407
536, 17.837816935591036
537, 17.202701287498712
538, 19.697437652254848
539, 29.469784740284013
540, 46.45398918409228
541, 57.60365266368899
542, 53.282991898040564
543, 39.61363139647892
544, 23.38089191697054
545, 13.016029826329031
546, 17.379250656108525
547, 32.30110989500372
548, 45.0420681681926
549, 53.81251044525379
550, 54.190075672861894
551, 47.247616557733636
552, 39.68841959700785
553, 31.979417195191672
554, 21.35827388335838
555, 8.008566538487685
556, 0.6677272244305641
557, 0.33633395746983297
558, -2.0985331234396654
559, -10.096927874767061
560, -11.090824844230156
561, 1.9204762133385884
562, 12.367603802290432
563, 6.616187571850787
564, -1.9766158383881702
565, 0.7963453081520129
566, 6.121220533217638
567, 0.0974395989014738
568, -10.747234171696618
569, -13.603872438128747
570, -10.705132372362641
571, -8.506315932469079
572, -6.782401048354586
573, -3.755769278657681
574, 0.10175522295776318
575, 0.1833732314316876
576, -3.8512212313335112
577, -9.44308603256286
578, -16.06090142791254
579, -18.93314534270121
580, -16.674588476278586
581, -6.511996873910903
582, 13.072708303589025
583, 25.924868868780322
584, 23.716585081409903
585, 16.70948312638302
586, 11.743597223556208
587, 9.110425662938724
588, 9.982739700897582
589, 14.693711618429006
590, 22.545617834392942
591, 27.741746826952294
592, 20.88537115094823
593, 6.9493831894915274
594, -2.5852923431075396
595, -7.640908453885459
596, -6.855732820683443
597, -2.072740682634503
598, 0.010350681396630534
599, -0.0007080659297571401
600, 2.623354364734041
601, 7.174343477559887
602, 5.751224243716024
603, -1.922329325310784
604, -7.325081136845256
605, -9.23631297115935
606, -9.815919580996706
607, -9.624129839377474
608, -7.639135245644411
609, -3.435514318467085
610, -0.3713723495693557
611, 0.17037144618780076
612, -0.34520176513478873
613, -1.1687278754593535
614, -2.820181138134558
615, -5.77677404485712
616, -6.982338678280939
617, -3.506911007867984
618, 5.351369500099281
619, 20.890645646034045
620, 36.09412770042263
621, 41.50871107892726
622, 39.5530761292066
623, 34.731577857859975
624, 28.333734199224182
625, 23.002672605605312
626, 17.69731486067485
627, 9.36541024475946
628, 0.28083802987521267
629, -5.5532220487539234
630, -7.518016004670244
631, -2.54535044481554
632, 9.281129217673424
633, 24.69621100277982
634, 40.535694298837825
635, 47.00713739651246
636, 43.660481551565226
637, 39.105635446026554
638, 34.54020503523134
639, 24.926815709964103
640, 9.732959180965736
641, -1.7959795539895822
642, -8.114717450935586
643, -5.2312990183590955
644, 8.232913722179092
645, 22.947712910211067
646, 33.80221171006633
647, 41.491098432626586
648, 46.29921133715061
649, 46.1678769761611
650, 40.020717739140764
651, 32.66182777153563
652, 27.149624909257
653, 19.52902024754667
654, 6.8559173855951485
655, -3.249482117655589
656, -5.760710625746469
657, -3.8337831349185763
658, -0.2349321216397584
659, 3.7209034559850807
660, 6.444699710249097
661, 11.063414787222428
662, 20.827034586431637
663, 28.131988567999997
664, 21.131439983745167
665, 8.158257729846355
666, 4.919934146223568
667, 7.278413308165
668, 7.373723160568716
669, 8.168399150955338
670, 16.763509398251244
671, 26.883444393221453
672, 24.433947618676484
673, 14.417240184458024
674, 12.319488954782628
675, 13.882876581071741
676, 3.53085249275955
677, -13.830853229439072
678, -21.17195184189086
679, -18.339584999444014
680, -7.316195247689848
681, 10.62443349160094
682, 28.533048178611807
683, 42.19950407316901
684, 41.809069146753245
685, 30.711174264294186
686, 30.59917713028608
687, 40.09090058143738
688, 37.02852122447757
689, 21.041795086253842
690, 8.243926747273235
691, 1.2191700854555165
692, -5.568517485156917
693, -11.287459623752966
694, -0.9400378107688994
695, 25.064293605806597
696, 35.85342675129141
697, 27.412361988450357
698, 15.875101809128864
699, 5.113621178659287
700, -0.3631678813621875
701, -0.6601475762254267
702, 0.27087158037829795
703, 1.8469113177238796
704, 6.492339959941546
705, 14.105661393063201
706, 12.914859669005637
707, 2.3718089938329285
708, 6.746390950205296
709, 29.796470791947286
710, 37.16571893916807
711, 21.819196748791
712, 9.28468539390451
713, 6.635527592145081
714, 0.6890300544428101
715, -10.627578866494787
716, -0.5392699825119962
717, 37.11611956244815
718, 62.98661589222729
719, 66.28930941123872
720, 61.19947456958835
721, 51.874844015201234
722, 36.06781462649451
723, 13.996440948158579
724, -0.9871865612576585
725, -6.439510997103298
726, 0.30016877430534805
727, 19.433427656781987
728, 31.763550157600548
729, 31.92739323368687
730, 27.041979667348187
731, 19.086757910181404
732, 5.525457813554112
733, -12.138893155879487
734, -14.443109306938823
735, 2.1816173064635223
736, 9.105336067350436
737, -0.8954758956542719
738, -6.574539380332226
739, -2.87841440562579
740, 5.425972750340861
741, 17.00837564172616
742, 23.530239279456964
743, 22.826217917543545
744, 14.167442795104307
745, -0.8003061664926463
746, -4.718249165670386
747, 4.795630020119916
748, 14.76127304352758
749, 20.31774746052224
750, 12.42470053764373
751, -8.051348614391372
752, -19.098888830174474
753, -17.571148924132103
754, -7.799062445434629
755, 8.760978758334659
756, 23.316403950456788
757, 31.686627577953004
758, 25.426354935125346
759, 7.202228376273979
760, 1.8588221075087858
761, 9.218672891513506
762, 10.080023265086766
763, 3.5248681798111647
764, -0.6962729845167814
765, -1.566180335705667
766, 1.5920099461318387
767, 8.926345506446523
768, 20.087694983479196
769, 30.37540472445471
770, 25.836226670673113
771, 9.41207816686483
772, -3.1875660863511257
773, -8.184447501505929
774, 5.79090615870291
775, 33.67621711075071
776, 54.16383998775473
777, 64.87641609761295
778, 62.95796544195218
779, 49.97177652905248
780, 29.83742417746953
781, 8.983320841780824
782, 1.2179916329359912
783, 0.9391398414654759
784, -1.4441128713824583
785, -3.272675473610434
786, 0.3153649854393734
787, 4.509185904336846
788, 2.2277829448580633
789, -2.2386605824640355
790, -3.6168575186738963
791, 0.8862977734388551
792, 14.869370456219713
793, 33.289978077667
794, 48.67260187556258
795, 52.84171444304866
796, 39.41654466509681
797, 20.580116489686134
798, 6.865869808606021
799, 6.907087865328322
800, 26.06144559125414
801, 44.84629590702343
802, 53.75453275780001
803, 51.82251624672517
804, 39.141831961519074
805, 24.792594092644322
806, 12.287508315811465
807, 5.007505132313781
808, 2.3402730236398384
809, -1.7863603316986882
810, -8.009604183558167
811, -6.183243884486728
812, 4.493620459067188
813, 13.46307911348822
814, 21.242633353665497
815, 35.81383700896413
816, 54.139776829482344
817, 56.85193431228208
818, 46.03054635554872
819, 37.386770947113746
820, 29.78750395475572
821, 15.638852367747404
822, -0.20673667022583686
823, -10.026071481121562
824, -14.827008089751416
825, -15.998933683246378
826, -14.259995478819292
827, -10.38076781415657
828, -2.574784155533507
829, 11.813027741380665
830, 28.78493936850691
831, 41.42070736181131
832, 47.10466850841158
833, 43.658360830223955
834, 29.276124997169063
835, 3.2948238303256403
836, -12.688481651797247
837, -9.655752985579966
838, 1.054695107846328
839, 14.774810763051846
840, 18.455978203863197
841, 9.483720253278989
842, 6.146977404559948
843, 12.308395930900588
844, 25.948444179745366
845, 41.86098125063063
846, 40.87590930043689
847, 23.45100391649703
848, 4.163635582571715
849, -9.478646251165173
850, -0.9286148397914076
851, 22.605708522708937
852, 36.996491793994664
853, 38.3285355139933
854, 21.240968036858703
855, -1.5151481894376957
856, -10.479335775459276
857, -11.5563885266547
858, -10.824955125182896
859, -9.303113786467293
860, -7.7314788116823365
861, -4.171734481001749
862, 2.9055519559960885
863, 15.712389320791772
864, 35.591824288962925
865, 49.655946615021094
866, 54.18811457804077
867, 53.28728194652376
868, 49.236433747126284
869, 50.55365699128379
870, 56.51808723823797
871, 54.607589932787505
872, 44.56395621140018
873, 32.121925900930364
874, 18.700888950843364
875, 8.587204890000066
876, 1.480500587737879
877, -2.161783351626127
878, -4.597748400566161
879, -8.97275427426166
880, -10.023550314007935
881, -1.7330727774315164
882, 10.245334547320908
883, 21.053155073416292
884, 24.196748677486084
885, 16.542383006550153
886, 5.9224793465728
887, -3.267544887197346
888, -3.667593515081535
889, 4.460207429403454
890, 3.3081238508734714
891, -7.269942678650295
892, -10.26492406506486
893, -3.957558077153408
894, 10.880208368104377
895, 30.404921141774594
896, 40.82827541527422
897, 38.78990655906318
898, 19.483690507832762
899, -0.9612108847099989
900, -3.327595779254807
901, 0.28569916915057547
902, 0.8287035745715912
903, 3.7032981975353323
904, 11.959801156388039
905, 22.830134255534176
906, 33.26101062120324
907, 38.289288730833505
908, 35.850074352585125
909, 21.154550211610967
910, -0.8033887412821059
911, -5.387970248107649
912, 4.946620741575771
913, 17.5476093638963
914, 25.730590394283354
915, 19.0046632020144
916, 6.544970160926823
917, 1.5185350463925715
918, 3.974387609317546
919, 14.310851185464799
920, 18.032433903148558
921, 7.8420200807572655
922, -2.567210646518106
923, -8.17410135304226
924, 1.6716803175245332
925, 26.837240014381678
926, 43.93206210699327
927, 49.52356736270167
928, 44.898359817224446
929, 34.641965994221664
930, 29.813701162398047
931, 30.42312980265615
932, 35.64013978009825
933, 33.26568151748688
934, 10.924852177710818
935, -3.1132980351044353
936, 6.865464434299611
937, 26.969777173514558
938, 48.70072918097003
939, 55.719571427887786
940, 45.424142199542075
941, 29.558485444392772
942, 12.235861181099608
943, 2.6806012131091848
944, 0.06779082489811117
945, 2.542843067279591
946, 5.153217642041909
947, 0.1609878971512444
948, 0.6155140476812448
949, 19.139674870164527
950, 31.28966857360274
951, 23.716572969383378
952, 13.029277246148013
953, 7.671011437544166
954, 15.643612533549458
955, 37.48347653208293
956, 60.60672772053931
957, 76.89733345062086
958, 66.32996529136881
959, 38.67535896956451
960, 14.932768690162447
961, -1.181743187864413
962, -9.313407158551854
963, -11.241136613633898
964, -8.010476695734269
965, -3.8524342792434254
966, 0.25317265440844494
967, 9.327782957160252
968, 21.348916547678527
969, 19.826671769065342
970, 5.474722960949748
971, -11.575398807566216
972, -24.37543981147519
973, -19.201559394061405
974, -6.852735240893708
975, 1.0306654928808712
976, 8.413434754383616
977, 16.800211854654663
978, 18.487070170249353
979, 12.18411414426373
980, 11.464329696510504
981, 15.670076791592692
982, 8.162211539284272
983, -3.5210974339479435
984, 2.485002758568953
985, 19.13279553872917
986, 32.3902291205286
987, 36.75687567787827
988, 27.907873365322303
989, 16.180866992812753
990, 6.982190320997233
991, 4.354380602812853
992, 8.004564856910292
993, 12.53661352097788
994, 13.527496689472628
995, 2.285684347733877
996, -10.680915500188803
997, -6.320370163513417
998, 8.230394238570625
999, 25.941642760407376
1000, 35.75632745450321
1001, 32.81899638821915
1002, 30.275976820918004
1003, 30.80733214916063
1004, 24.398749730004965
1005, 11.79552382547854
1006, 2.832236075115361
1007, -3.793405211225945
1008, -10.937441897609915
1009, -10.328933751264685
1010, 7.187238206153324
1011, 21.144224589933856
1012, 19.064185389593604
1013, 10.964714477965572
1014, 2.4402998641967315
1015, 8.46451279532539
1016, 24.29318049562835
1017, 24.199356491782964
1018, 13.990133928223713
1019, 7.134617920169603
1020, 5.076655645751998
1021, 8.030459510654055
1022, 15.651560886561583
1023, 24.96568117635752
1024, 16.617128952331313
1025, -6.861008241868149
1026, -8.84502163402476
1027, 9.500299716837617
1028, 34.70514507839971
1029, 51.72018080477437
1030, 42.277332893352195
1031, 23.408272516498982
1032, 7.33347877807546
1033, 0.25969456478151187
1034, 2.2650061595113584
1035, 4.924699865925504
1036, 5.611427992455447
1037, 0.11923197309579336
1038, -0.531735500997911
1039, 25.38724808211009
1040, 51.053247863515935
1041, 51.70632986669443
1042, 34.584179973341634
1043, 4.891990420710044
1044, -20.04372912390545
1045, -34.45542622084895
1046, -22.05574591689583
1047, 2.9675384664924422
1048, 5.095288788672406
1049, -2.0179376355958993
1050, -1.9379176829252174
1051, -0.2943108458562165
1052, 0.13706909085249208
1053, 0.362373746825142
1054, -1.3637815602373848
1055, -14.81900659068333
1056, -30.11064623614311
1057, -19.230434579378652
1058, 3.9880237192214736
1059, 22.601882295993164
1060, 25.645799234785954
1061, 9.347529404448778
1062, -0.9956634784020935
1063, -1.6610697035207522
1064, -2.8156818349116293
1065, -4.09705944926327
1066, -1.4450720763097706
1067, 5.514031283375971
1068, 17.75640690301998
1069, 51.834408852569595
1070, 114.58046570780152
1071, 151.75359757762408
1072, 161.57748424063448
1073, 192.33971168072412
1074, 238.13571857008492
1075, 274.72747903767004
1076, 297.54141736345855
1077, 302.6452351818043
1078, 284.6945469112502
1079, 245.98726449388323
1080, 225.80287707909838
1081, 223.9204327122511
1082, 208.2543428629756
1083, 178.52474004303804
1084, 139.25268808080818
1085, 101.1457025034133
1086, 71.8100868650522
1087, 47.500534694133876
1088, 22.77987884753111
1089, 1.1023075808352587
1090, -15.534538483057077
1091, -20.138471473529535
1092, -13.903106188606671
1093, 1.768331152909468
1094, 4.112744206076968
1095, -16.886846456653984
1096, -28.949119278184753
1097, -26.4061322405978
1098, -17.62924878774902
1099, -5.261491743006445
1100, 7.021561470893175
1101, 18.555308399950263
1102, 27.454460469315563
1103, 38.82856680728992
1104, 52.24317783202014
1105, 53.83891839640091
1106, 41.63429227005645
1107, 16.39621336977052
1108, -1.5012042023336107
1109, 7.228616440038877
1110, 18.749821701232122
1111, 19.66710717573551
1112, 7.396472400210314
1113, -11.858001925601002
1114, -19.570844796966867
1115, -15.13606730135507
1116, 1.2171814642833851
1117, 13.067363293975632
1118, 9.683989653943627
1119, 0.22376227720769748
1120, -9.151347588995122
1121, -4.507359284186805
1122, 10.515372884759017
1123, 25.750169823834312
1124, 29.412906103617843
1125, 14.219080688776558
1126, 1.7410806388515994
1127, -1.076093015636161
1128, 3.7448844531400027
1129, 12.662760003795483
1130, 18.650390957556283
1131, 25.4097634464606
1132, 36.78235475664724
1133, 41.70392186638492
1134, 36.67914014878306
1135, 24.591038422125166
1136, 8.891480024960856
1137, -2.7501461770889364
1138, 1.5949857887617327
1139, 32.04563194777302
1140, 50.44287576619263
1141, 43.895515934743344
1142, 20.729663892133885
1143, -4.690088283321074
1144, -3.255478322093495
1145, 5.539781435975328
1146, 4.176433761736007
1147, -0.13029327482718145
1148, -2.813778001830542
1149, 7.826923503959279
1150, 29.527570404025937
1151, 50.55955886642596
1152, 52.724383192205096
1153, 23.556234528844925
1154, 3.0076959486591477
1155, 3.828635663453042
1156, 20.091240935671976
1157, 37.48139238159865
1158, 30.701781173256222
1159, 9.849627301596684
1160, -14.08940356473795
1161, -17.587184714837804
1162, -2.191711355503685
1163, -2.427305453054487
1164, -10.967991571197672
1165, -10.57316933561333
1166, -4.020981092700367
1167, 7.1869594218660495
1168, 21.503639480952643
1169, 31.15352019515285
1170, 15.351163443573114
1171, -2.719694026554862
1172, 7.739349614561888
1173, 26.95371761438173
1174, 42.341865885481184
1175, 41.83366617708043
1176, 27.859704560356477
1177, 11.917370289784685
1178, 10.102146359492053
1179, 33.431889998252245
1180, 45.97235045201569
1181, 38.64717040225605
1182, 26.595612952571173
1183, 12.794141694801056
1184, 0.4735807909578398
1185, -8.574679818781078
1186, -13.85086054283056
1187, -20.559663576384537
1188, -22.259198088248922
1189, 6.766855446269801
1190, 44.81318498360679
1191, 59.99604863131708
1192, 53.866923117917395
1193, 30.58437388409311
1194, 9.366795643901696
1195, -3.0915041929092695
1196, -2.394793942864453
1197, 0.13319639984274545
1198, -2.4238426079118653
1199, 1.2585226652108759
1200, 12.435483543995815
1201, 24.901336865221765
1202, 31.21223597682547
1203, 25.128334334438023
1204, 21.812195749364037
1205, 30.30838018312943
1206, 50.421554094820294
1207, 68.22853679917034
1208, 56.26619178608007
1209, 31.73513795529152
1210, 7.8393050108661555
1211, -2.6626739488579005
1212, 3.2240748241583788
1213, 29.490054127081294
1214, 54.570195969517044
1215, 57.12145349430648
1216, 51.92374335943987
1217, 43.51036286516455
1218, 28.455988359619823
1219, 12.246253852437349
1220, 5.113410901610678
1221, 2.831362947430989
1222, 4.18328136467062
1223, 14.910935860234531
1224, 22.950818056699973
1225, 1.0029330512875276
1226, -23.08882331354289
1227, -30.828877969630867
1228, -20.274866853545063
1229, 2.6960003178814986
1230, 17.953822336678968
1231, 15.557485509301841
1232, -10.023951338588631
1233, -20.221876119358058
1234, -5.693825762640245
1235, 23.730654210105968
1236, 44.37517360289803
1237, 26.730181790588176
1238, 1.1148831102173062
1239, -16.393864708231376
1240, -13.22595778725281
1241, 2.046531677913663
1242, 12.579415743374284
1243, 15.1802342984397
1244, 10.944652981855143
1245, 17.041979739329236
1246, 32.30271482391481
1247, 45.51086953854929
1248, 51.586349030983
1249, 47.881600954651276
1250, 37.86845715439222
1251, 24.48181297004021
1252, 15.474797630357898
1253, 13.782853791028629
1254, 22.471512874659766
1255, 47.30935780333766
1256, 80.1440049007465
1257, 101.45264700487951
1258, 102.93430599958992
1259, 81.3989586965049
1260, 69.92498486330987
1261, 71.97052730907672
1262, 70.25725333737364
1263, 59.576136898530876
1264, 37.392262447634494
1265, 23.40223962591108
1266, 24.6289333752743
1267, 52.92006391686118
1268, 75.83035659299367
1269, 64.25628970059734
1270, 44.446938797312214
1271, 30.154485429533906
1272, 42.8363666688806
1273, 62.15427367344637
1274, 67.76063774261365
1275, 46.461763855333174
1276, 8.309235024089503
1277, 1.3853660356385262
1278, 13.86968751084305
1279, 29.714636931830682
1280, 19.400005170160057
1281, -12.505877833485101
1282, -24.692580751311652
1283, -13.818457740572285
1284, 18.61449629590288
1285, 27.276118410310573
1286, 9.065882440773294
1287, -3.4580865429870755
1288, -5.948397354001827
1289, 4.093582141068509
1290, 24.367703599374636
1291, 38.79499343344878
1292, 7.306598727185701
1293, -16.85860273004755
1294, 1.289617527428618
1295, 14.400557402248523
1296, 13.964835055958247
1297, 7.594203568708963
1298, -2.9161421353787773
1299, -14.214952564983378
1300, -8.1844441751241
1301, 6.008994433608677
1302, 1.9494516578911316
1303, 0.21436148496331953
1304, 10.761258316982094
1305, 22.984958618493692
1306, 28.68981423138075
1307, 17.38079462299993
1308, -1.7757306631556276
1309, -18.68317071866977
1310, -7.739054624305936
1311, 8.600314896072177
1312, -2.6068211511260415
1313, -13.484811953000644
1314, -14.540636010122853
1315, -4.658548332412465
1316, 15.540019967654644
1317, 41.32970409353493
1318, 34.31276284436626
1319, 4.502183813102874
1320, 6.409697207606769
1321, 12.23413489317636
1322, 2.2810855728848765
1323, -2.3317649022847036
1324, -0.21531777714335476
1325, 4.549522173497735
1326, 18.260846468432646
1327, 37.354862474449874
1328, 31.839683890538254
1329, 9.87631751723984
1330, -10.081945574871042
1331, -12.908858195052744
1332, 0.945380676125751
1333, 12.119479859924013
1334, 14.0390897206089
1335, 4.969231012291857
1336, 8.35456961423506
1337, 21.635038817546047
1338, 25.19916848369121
1339, 14.016915784250159
1340, -9.154933911449461
1341, -17.021156468127174
1342, -6.443205089172807
1343, 21.580081390313353
1344, 38.17881619398986
1345, 33.18904417905833
1346, 8.906697472461019
1347, -0.9262171474092611
1348, 24.18886501360248
1349, 29.941164605318136
1350, 16.651203631846784
1351, 10.01122655783729
1352, 9.83580131040344
1353, 15.914413369151589
1354, 30.943917628213512
1355, 34.461355076732616
1356, 5.54443976774246
1357, -4.370923771635262
1358, 9.779543614430622
1359, 24.98325529865133
1360, 39.33742400545134
1361, 49.515980414820206
1362, 34.446146633123135
1363, 10.616613606850024
1364, 7.1107385792583955
1365, -4.1084625368353045
1366, -24.13924316908424
1367, -23.246661824283365
1368, -8.920459709420811
1369, 11.16466742700186
1370, 28.07057323064373
1371, 35.51412053853346
1372, 28.923149751022265
1373, 20.308013561100324
1374, 15.88978556497068
1375, 21.94443572507771
1376, 26.104063639848846
1377, 20.703622185227232
1378, 16.288785340149843
1379, 14.183204944724366
1380, 12.740784796063053
1381, 5.884697998829779
1382, -4.461949631700463
1383, -6.640788456617429
1384, 2.291594518148031
1385, 20.51301921076538
1386, 17.307840510658934
1387, 2.2128927345715965
1388, 0.06450830612084246
1389, 7.681250907424328
1390, 23.443538120800895
1391, 42.94417086664134
1392, 48.89373027683905
1393, 34.798900191870416
1394, 32.824898729997585
1395, 37.07348600864043
1396, 31.74885532747794
1397, 11.642949617122213
1398, -9.781906436894133
1399, 0.16196644658657533
1400, 26.059271599727253
1401, 50.09231793114441
1402, 37.708319478293106
1403, 10.34004945440438
1404, -1.839411533911516
1405, 16.626854560064658
1406, 51.328207735563865
1407, 61.306899485314716
1408, 39.68585380402419
1409, -1.675710341794911
1410, -15.16339699909804
1411, -10.190469520413444
1412, 1.6373164946021461
1413, 1.5949904408935254
1414, -1.9870916326772203
1415, 4.543985308667288
1416, 5.656816768041153
1417, 2.9522290192985565
1418, 9.836020084871961
1419, 20.904212752884177
1420, 33.82974173644243
1421, 55.30680641942172
1422, 54.290379326287166
1423, 13.91006640221758
1424, -11.093119498780197
1425, -10.59479388263071
1426, 16.487508303886443
1427, 30.10397311785755
1428, 24.45223503283205
1429, 13.324613687208966
1430, 5.700937584523217
1431, 6.12886861764764
1432, 14.778374351352795
1433, 13.145363871676182
1434, -6.006298411981788
1435, -12.037545352063717
1436, -0.6915114937851286
1437, 24.749866317672513
1438, 22.066912390262132
1439, 6.18730701515824
1440, 21.48230630282842
1441, 35.37172010905715
1442, 39.17632603797301
1443, 42.00626546489457
1444, 30.695477885212313
1445, 5.626253254637504
1446, -1.1887865869834968
1447, -0.5267326703060462
1448, -2.963939148724876
1449, -7.200642168825652
1450, -7.885602159758491
1451, 0.6078035608725258
1452, 8.611734946435263
1453, 9.693262590588802
1454, -1.517852098495041
1455, -3.6517491151789727
1456, 4.470902649917207
1457, 8.242554513031337
1458, 15.25047738048579
1459, 24.380588776816694
1460, 21.28436203898582
1461, 25.481279134419765
1462, 42.04934201381775
1463, 27.738679609979954
1464, 5.12629063949862
1465, -0.6801848662685188
1466, -4.455744038506509
1467, -6.653149884305549
1468, -4.504173526150225
1469, -1.4985395703542963
1470, 1.8227980662882146
1471, 5.941087217170207
1472, 10.88035183703505
1473, 10.73535618816868
1474, -4.735725475855816
1475, 0.1951495991406773
1476, 28.73952563966668
1477, 43.09218036477796
1478, 39.3156414264472
1479, 21.41452055510308
1480, 7.226814739078691
1481, 2.771003627290611
1482, 8.070080708327623
1483, 14.18741873433055
1484, 18.439889050799593
1485, 19.809686925343613
1486, 15.834536548319193
1487, 7.064202786789792
1488, -4.052757234153432
1489, -13.410330129940576
1490, -11.036599440560167
1491, 12.597081867271754
1492, 22.804587712391367
1493, 15.609813371866494
1494, 0.3604744753583873
1495, -2.4433326597122687
1496, 10.936772892220233
1497, 36.303643066324184
1498, 41.826544355406895
1499, 24.2204268657988
1500, -0.036754509296770266
1501, -5.6607257945402125
1502, 9.670898368214694
1503, 30.479557842420945
1504, 39.16731153270257
1505, 36.06700802583964
1506, 40.821602924524996
1507, 43.47298878571428
1508, 35.61978696868209
1509, 8.78265643860641
1510, -7.022619411670348
1511, -0.9958555704743048
1512, 15.338233247371136
1513, 16.644197823606646
1514, -2.5506251181263906
1515, -11.044995148646649
1516, 2.1283790299353313
1517, 33.95090360385211
1518, 46.28103319309139
1519, 38.18413874475118
1520, 17.94256489670215
1521, 11.39246476446715
1522, 14.180029035145708
1523, 15.134555352845382
1524, -3.918495339402398
1525, -17.15414870286304
1526, -10.555726088693973
1527, -2.3041407857913327
1528, 8.285466566768719
1529, 18.691421900342903
1530, 11.361849402159805
1531, 3.1738652733765775
1532, 4.948914208278438
1533, 4.82984650135495
1534, 9.326666075227422
1535, 19.313256254333737
1536, 17.79864017204045
1537, 2.818395112215512
1538, -18.573416152431037
1539, -21.324263677941417
1540, 0.8153730490766975
1541, 38.91221574627525
1542, 42.19960702708113
1543, 26.456504639190825
1544, 8.975722167871027
1545, 7.2702528393438115
1546, 23.364112815767385
1547, 43.03689027315704
1548, 22.153757093542936
1549, 1.4770251797344827
1550, 3.2377316584970686
1551, 24.085897245463457
1552, 39.125825707129934
1553, 38.054104224071125
1554, 24.429901361386783
1555, 7.407827841802828
1556, -5.610714188438578
1557, -8.928785931325365
1558, 0.8267398587317984
1559, 15.831046279814927
1560, 15.664850962616129
1561, 7.902768852493409
1562, -6.8529598543473185
1563, -29.271460025632223
1564, -20.737686296559332
1565, -3.8407246524434413
1566, -23.151929323651984
1567, -23.1320088073644
1568, -6.037603074075378
1569, 11.53569172447851
1570, 42.4163548885349
1571, 56.54772190572521
1572, 32.80640077892667
1573, 33.25032239657003
1574, 52.584127986689964
1575, 79.3515043101288
1576, 100.85620504428289
1577, 122.68441021843637
1578, 149.3933126760562
1579, 181.9955983599766
1580, 211.86306312524493
1581, 227.60737105271073
1582, 211.88649792041497
1583, 195.52452240357206
1584, 185.9508215943788
1585, 170.51012860008632
1586, 135.81744894559324
1587, 87.40493215986044
1588, 42.70260295718117
1589, 21.510837389695553
1590, 17.784602294665547
1591, 18.818346372230735
1592, 5.335855033187272
1593, -10.406387041223752
1594, -17.091796201084435
1595, -24.219680797630645
1596, -14.190469108336401
1597, 10.82831664231935
1598, 3.2287755470292723
1599, -5.780800691129571
1600, -8.840965741723721
1601, -21.1915124468278
1602, 2.943674203399951
1603, 38.48223716224447
1604, 19.30314212280564
1605, 1.4895190784441183
1606, -4.500439476768406
1607, -2.989309222029533
1608, 4.603032167153742
1609, 12.44048054099676
1610, 17.338188730082038
1611, 27.09478241872057
1612, 36.44567095402954
1613, 34.24327706771328
1614, 3.258553753646538
1615, -5.734599875056574
1616, 10.166888628046763
1617, 26.993408368421115
1618, 31.02365263416823
1619, 17.565763394772148
1620, -7.704849236125483
1621, -5.883583893984905
1622, 0.25673181948286583
1623, -2.8962634213708043
1624, 1.350948532699931
1625, -0.08256186703283674
1626, -4.613865456781241
1627, 4.686625526723219
1628, 7.118427118031832
1629, 12.097877551615056
1630, 35.082586063154395
1631, 44.143106389717104
1632, 46.28438089117162
1633, 42.72751686328229
1634, 6.283788382623243
1635, -7.325537088162491
1636, 8.827145985668267
1637, 16.45417913724168
1638, 21.45952098807311
1639, 15.776680943361498
1640, -7.206906223491842
1641, -8.60459158609956
1642, -1.5374994600692844
1643, 1.887450180889573
1644, 6.026477919876925
1645, 8.034100435635992
1646, 5.843428881916225
1647, -1.5891169219053154
1648, -9.764814510174801
1649, -8.41780342694392
1650, 2.5366337490781916
##END=



