##NAMES=
##LOCALITY=
##RRUFFID=
##CHEMISTRY=
320, -27.146203509276347
321, -8.813286347033682
322, 8.446234307087252
323, 14.665481095220457
324, 12.683666567526416
325, 7.484914111983926
326, 0.5264026543127329
327, -2.879929770218041
328, -2.716300210843656
329, -0.5417772351602252
330, 3.411945435233065
331, 7.047447919614569
332, 8.65560828188518
333, 7.750911997673029
334, 3.718926661121259
335, -0.3255587081903286
336, 2.7765566480629786
337, 12.153804392414713
338, 17.498807089000366
339, 17.51932928246515
340, 20.46039823895717
341, 29.450136104035664
342, 37.34914204242705
343, 38.282965869535474
344, 32.6479773512001
345, 21.178083708467057
346, 6.329788402222221
347, -1.7163899879824385
348, -3.041400280900234
349, -0.03717427440278698
350, 7.050032560882755
351, 19.22194839511303
352, 35.92347461098325
353, 47.448427136399005
354, 42.80743651936791
355, 29.15057847182561
356, 23.65384640928005
357, 23.57641335459357
358, 11.280941670959692
359, -12.249721393745858
360, -19.512444655177205
361, -2.3829813048687356
362, 16.27654403921406
363, 21.260220369199487
364, 20.2805015985914
365, 23.895641900287956
366, 27.9769603820705
367, 20.817260104463458
368, 5.301914963410127
369, 2.966225199222208
370, 15.957065194542338
371, 29.280292545456177
372, 35.768944092747915
373, 37.89923256886141
374, 37.37787883326109
375, 32.98618233628258
376, 22.931992465826625
377, 10.746269803276846
378, 7.884450220178223
379, 12.682320987599269
380, 11.973380451195226
381, 4.20756697899742
382, -1.8748548736211887
383, -4.017094621613978
384, -2.637151095570516
385, 2.265410451475873
386, 10.911389459908605
387, 22.692790604293805
388, 32.09781897004996
389, 23.933449009963624
390, 1.321015717679984
391, -13.57325718654829
392, -19.09590775284596
393, -18.661968750961023
394, -13.25053740632029
395, -10.75862285195035
396, -15.97023149328652
397, -23.606611450491982
398, -27.41591970047375
399, -27.63362407175282
400, -23.971777116544217
401, -16.64585532437286
402, -7.592955929353593
403, 2.780048697485654
404, 5.921107287324048
405, 0.21198785859633063
406, -0.09341904251596134
407, 11.997454762391499
408, 36.74526110632178
409, 75.76468899266274
410, 126.85075403178689
411, 171.5120314563892
412, 210.839983496704
413, 249.15047100269567
414, 285.3380279043031
415, 310.09131834754317
416, 322.8072854596512
417, 339.7335579195851
418, 366.25589229391426
419, 392.50399097019
420, 412.3409452825226
421, 428.241897522249
422, 443.18246180785445
423, 451.81393231934817
424, 442.24115315533163
425, 417.9588280108537
426, 394.82514412065575
427, 374.5017353299554
428, 356.900032247705
429, 341.3959674912039
430, 315.83655129541876
431, 275.5370216767942
432, 230.5670787987583
433, 188.00241307763008
434, 144.9691236489498
435, 97.647754655075
436, 59.693462913684925
437, 36.58821927219378
438, 23.45461595517918
439, 6.490496764627096
440, -14.884627341481064
441, -22.412112794649147
442, -13.32980378940647
443, -5.580118611512262
444, -5.634904524171361
445, -5.3026879560247835
446, 1.0097395019820397
447, 10.905466372450064
448, 21.59645620874744
449, 34.73687858322046
450, 49.4702869461953
451, 64.04159176095618
452, 71.67603129418512
453, 71.8709257969249
454, 65.62863123309671
455, 53.91210626593693
456, 48.078109058130394
457, 51.6377785473951
458, 51.827730201681334
459, 41.48621401265791
460, 26.305771411142814
461, 11.887963245784704
462, 0.8523154358126703
463, -5.438356294953337
464, -7.608774522512249
465, -5.985237856252752
466, -1.91132404558266
467, -2.354179991325509
468, -7.48031649042332
469, -9.850927844800026
470, -7.6906366938274004
471, 1.2974380446021314
472, 18.728366902821108
473, 32.48726960996555
474, 34.6227970700329
475, 25.183972643697416
476, 4.227048170408125
477, -20.573800869427032
478, -37.79645941813578
479, -45.757637140965926
480, -35.67586592142561
481, -9.3923369970571
482, 17.364305014995807
483, 44.206849647722265
484, 65.23646274697603
485, 79.3539580573688
486, 84.92922177100809
487, 81.3833927508249
488, 74.27940569575003
489, 67.15403416793106
490, 58.24187526040714
491, 45.67207182297716
492, 31.31557398775567
493, 18.419554153900208
494, 8.441719927250233
495, -0.8294239792685403
496, -10.006760954979654
497, -18.334137872832798
498, -25.605290957731086
499, -26.364451082430605
500, -20.110092173406883
501, -15.373418271753508
502, -14.435137487022075
503, -11.192007476567596
504, -2.3553892537238426
505, 8.547568797312124
506, 19.176623766788907
507, 31.13487203126715
508, 46.30005883402191
509, 65.67351270558811
510, 83.60818531563564
511, 101.22545848795835
512, 121.97280911913367
513, 145.31273595069706
514, 167.6722082993865
515, 187.85722107784477
516, 200.25612712045313
517, 204.10652373570338
518, 204.78200793070755
519, 204.04751293074514
520, 203.83745185564567
521, 205.04266190724684
522, 203.15962283235422
523, 194.95429619137485
524, 180.47971846527162
525, 159.79539098248097
526, 133.4169191545534
527, 102.22429837391064
528, 67.48517587311198
529, 39.10977127260139
530, 16.45391201078928
531, 4.8320186266164455
532, 3.7565208482183152
533, 12.898937082634802
534, 32.619185377360736
535, 60.16874433046905
536, 89.81161540992343
537, 99.70862586430303
538, 82.76291599337765
539, 60.04841033149569
540, 42.24443221007732
541, 27.940305677338074
542, 18.889086077373577
543, 15.858370014690081
544, 20.398285150832635
545, 30.136768156333346
546, 38.43832023821233
547, 43.71383974493165
548, 42.427339427467814
549, 37.333188542248536
550, 37.96015008766062
551, 43.216638523686925
552, 44.42069290484051
553, 41.21369490602774
554, 38.89797872220424
555, 37.80563245399662
556, 30.278155632225207
557, 14.698821858019983
558, 2.435606391125475
559, -3.8957868032493934
560, -4.57537039730596
561, 0.47686109718961234
562, 3.139154878763293
563, -2.811214719193231
564, -11.08426897039135
565, -15.083620966078342
566, -14.777698985841198
567, -9.482085580967578
568, -0.46570012242409575
569, 9.405797416044152
570, 16.843798652369514
571, 12.72754871471625
572, 0.5144491877890687
573, -4.242988442467322
574, -1.7150845620917607
575, 1.7514701803484058
576, 4.927629174318099
577, 3.0632068935028656
578, -4.0614498024779095
579, -8.500625954976385
580, -8.29459494722687
581, -2.649216575500759
582, 8.987881985254717
583, 15.821545582026374
584, 12.372261857990452
585, 5.486423364164693
586, -0.2737433803085878
587, -6.589281952919919
588, -15.576626960139947
589, -21.72754786398218
590, -17.82842575277209
591, -9.654355231992668
592, -6.4115297384205405
593, -2.4534544164753243
594, 14.157566115961345
595, 37.71662676598771
596, 45.637876623930424
597, 41.11710185302127
598, 39.73205978767146
599, 39.94667580553232
600, 28.389330006012642
601, 6.691568952684065
602, -4.397412131436795
603, -4.0603903042565435
604, -4.327822418051255
605, -7.425248514266968
606, -8.165278121409756
607, -5.4237297603667685
608, -5.223670836854581
609, -9.476380277510543
610, -9.063114094307366
611, 0.22085417560901988
612, 10.15262763073224
613, 16.52662135988794
614, 20.739198944904274
615, 24.51975634956898
616, 28.28052349200607
617, 32.39666498852239
618, 34.385934127896235
619, 31.361561926488775
620, 27.840513906123306
621, 30.41626439115089
622, 35.21727323783443
623, 35.16465727363993
624, 30.258849954537254
625, 20.818313739719542
626, 7.93639745979408
627, -4.6861434100701445
628, -14.721051408561834
629, -11.97369018397876
630, 1.8073977311314593
631, 16.527998059996662
632, 31.85769915793162
633, 43.146848506987226
634, 49.98651635780925
635, 52.30223794367794
636, 49.66536358502435
637, 39.005130186836595
638, 20.768114985146894
639, 4.855824165419108
640, -5.403446827591324
641, -5.942881803846376
642, 3.752235445875158
643, 10.377252820868762
644, 9.019229203717714
645, 7.517440437589812
646, 9.657216928129856
647, 10.690406526686274
648, 8.880354155253372
649, 12.261593030053064
650, 23.698316501647696
651, 27.86750051998206
652, 15.047749395744631
653, 4.37007627962339
654, 10.535307296280735
655, 19.8614240676402
656, 18.844069338026657
657, 16.886760841578507
658, 23.570865984378088
659, 25.825319437066355
660, 8.163684019061748
661, -12.221102036289267
662, -15.018362380627877
663, -7.5111534052070965
664, -0.024311404140007653
665, 8.722040442299658
666, 20.758984338815026
667, 30.39878752990262
668, 28.073662377601522
669, 17.48071276283372
670, 7.376913328227147
671, 0.788809095477518
672, 1.9197111557559765
673, 8.20180877587336
674, 12.304897177740713
675, 14.340692794633924
676, 18.50886279125598
677, 21.910840941402057
678, 13.903317048526787
679, -1.9451152433421157
680, -9.578774659165902
681, -9.086821291441993
682, -3.761327933062603
683, 5.95389900816599
684, 18.272265893503572
685, 29.279184456413986
686, 24.57598383175491
687, 6.106378548627617
688, -5.436547989241717
689, -9.133842354481203
690, -10.070603345555355
691, -8.580564690121719
692, -1.4062407272554083
693, 10.332987887967647
694, 10.998853452735602
695, 0.726199981177615
696, 1.415538829873185
697, 14.742676988698804
698, 19.76640535431261
699, 13.966048198590215
700, 12.577118955557125
701, 19.26388688508996
702, 24.137640771598853
703, 25.546602665125192
704, 26.944952848853518
705, 28.58795002983834
706, 24.603263473220522
707, 14.749741669888863
708, 13.69488422663153
709, 23.84584328322444
710, 32.906404814331836
711, 37.59600719978698
712, 34.769739199204196
713, 24.257860570103276
714, 14.630003012870475
715, 8.398944820603901
716, 6.6937499080072485
717, 8.933138129198142
718, 8.195494889053862
719, 2.9506407283938643
720, -1.936297832958644
721, -5.306606724492667
722, -4.219860378030717
723, 1.7972740924124082
724, 4.874836281455828
725, 2.8009942526164195
726, 3.609247433267228
727, 9.20617382088858
728, 11.716144181500567
729, 9.02297331220143
730, 3.7435111252016213
731, -2.771116997315403
732, -8.95151178883134
733, -14.363779051211623
734, -14.845635527038212
735, -9.000972215729234
736, 4.265445628332145
737, 24.478632701547212
738, 28.645334754035048
739, 12.666167926119215
740, 2.4588719655039313
741, 3.966451791770851
742, 1.5694890155341454
743, -7.295805208047568
744, -4.320892697678573
745, 12.524770951381925
746, 12.920756633616293
747, -7.120099728617788
748, -15.634898177192099
749, -7.999869955172471
750, -2.544384289273239
751, -1.7277354061097867
752, 4.74788656640203
753, 18.22261639294402
754, 27.333724400165465
755, 29.871810715889296
756, 25.680069559249205
757, 15.410501023682173
758, 3.356724424730146
759, -7.339759426563887
760, -5.787605255157359
761, 7.203025578946381
762, 17.369971692297895
763, 21.752327074566892
764, 20.69310656302241
765, 14.942008609982167
766, 7.6826821341046525
767, 2.4820955886862066
768, 8.802453697006058
769, 23.15263279926421
770, 24.938680656472116
771, 16.257752391168196
772, 10.883239813665568
773, 8.590744258255654
774, 5.912086388218995
775, 3.8094439543010594
776, 6.439934346883547
777, 12.111695706836144
778, 14.506627459942138
779, 16.756062026251584
780, 26.705709346965705
781, 37.63623987781466
782, 35.080544779620595
783, 21.594266004659858
784, 2.664048080816883
785, -13.0456360105768
786, -13.650632277317072
787, -4.055455067965795
788, 9.501007196573482
789, 22.390143667288157
790, 26.2483672413764
791, 25.569105417891024
792, 25.236970275594103
793, 35.177782135007874
794, 59.65032862640692
795, 78.53836802808883
796, 75.94890051175344
797, 59.87399459965309
798, 35.9575617636915
799, 15.771918862190432
800, 7.502158209001209
801, 3.7625515228601216
802, 1.0850947855878985
803, 4.442125078513072
804, 15.470044164049341
805, 16.49605622290619
806, 2.7635667520075913
807, -3.927501099649362
808, 1.0175264018284906
809, 2.6380369759554014
810, -1.1575207031401078
811, 4.330818613631436
812, 20.695433344792946
813, 32.39480246356743
814, 37.56924615580556
815, 41.0232732077493
816, 41.57835105826962
817, 30.949414018869447
818, 12.256385683395365
819, 1.4931507226269787
820, -2.8357038184976773
821, -6.378502236711029
822, -8.948695940707239
823, -8.624886987890022
824, -3.727708772364622
825, 9.352648474023681
826, 27.504553581397886
827, 42.374759872991035
828, 48.28693936909713
829, 37.852344713480306
830, 19.732965359407444
831, 3.0929049685501013
832, -7.817347882043578
833, -10.876587944326275
834, -10.040471196786712
835, -7.560181566250321
836, -0.9047766506328117
837, 11.38346093400105
838, 20.10376999452592
839, 21.55695754198905
840, 18.478980582374334
841, 12.167129536840548
842, 6.587730963460217
843, 3.946116638093372
844, 7.7412988152555045
845, 17.041533313842137
846, 19.484889376252795
847, 15.938463976890944
848, 17.729051749633072
849, 23.06435789262605
850, 21.81935007759921
851, 14.886709370554854
852, 6.582476889785994
853, -2.4388016101634094
854, -13.514044255972294
855, -21.367480284430712
856, -17.05864344814927
857, -7.915082448664634
858, -2.02590733183024
859, 0.3162295442539289
860, -1.3238061770275635
861, -1.7735584233655572
862, 2.21699315700198
863, 8.578845268119949
864, 16.7092433723019
865, 24.7395484941203
866, 32.38963768811345
867, 40.582538341690906
868, 48.976016677053394
869, 53.249408604460314
870, 51.37957531398206
871, 37.38039577219706
872, 15.345483933858304
873, 5.4176635661542605
874, 5.658666523951979
875, 8.512241477967564
876, 10.62432638740529
877, 4.580036551153626
878, -4.510861142663543
879, -10.263895061521907
880, -6.785198097030843
881, 13.061814316163236
882, 34.08287727778725
883, 42.135097093002514
884, 42.569643147186525
885, 38.08444575695103
886, 24.563029894957708
887, 2.285322235559761
888, -6.824096495795402
889, -0.7412284476467903
890, -2.1140216687613247
891, -11.012973736807908
892, -5.24483687079146
893, 12.932149490308802
894, 23.641341828878467
895, 25.247370418674564
896, 17.93454720636055
897, 6.753876148562995
898, 1.0783855542695164
899, 1.2517846800242296
900, 8.175299898745834
901, 14.355326924078781
902, 13.914437372588054
903, 7.862126984335646
904, -2.5645924382488374
905, -4.454160517858327
906, 5.555636088027768
907, 12.686787571927198
908, 12.42238938434366
909, 6.262893524951778
910, -0.20914524420777525
911, 12.17753363245447
912, 38.8924972607183
913, 55.76167819978582
914, 58.886460647817785
915, 43.4169937900715
916, 17.882412976980504
917, -4.446248290351832
918, -10.410408406321494
919, 12.066457286745845
920, 41.98724157989136
921, 64.84013381035265
922, 77.83387751647251
923, 80.15441656272787
924, 74.24530203192717
925, 61.772480875086785
926, 48.85565431915347
927, 34.86129004173881
928, 13.677664652881049
929, -7.704298714470497
930, -16.05148944327175
931, -10.061840721365115
932, 13.189995045362139
933, 39.27346507358834
934, 49.48770326165595
935, 51.09017576659562
936, 49.017531821911234
937, 47.973275751052824
938, 49.70097172751002
939, 51.415652567739016
940, 50.82294443725641
941, 38.470875578247615
942, 16.890589674976127
943, 3.6398517400111814
944, -1.8431056940826238
945, -2.035316092496032
946, 4.779780365654915
947, 22.12748307687025
948, 35.05356963031318
949, 29.97688672395134
950, 20.68003012465897
951, 14.827792740549285
952, 5.173063338701013
953, -7.8441183130917125
954, -2.9605383379007435
955, 18.952709172753202
956, 25.757645806544588
957, 18.77086119849355
958, 15.222404393441138
959, 14.214522337961625
960, 11.838618077669253
961, 14.092274764622289
962, 25.250299576379803
963, 29.77754648446853
964, 18.01144134260403
965, 6.93853639876852
966, 3.601818013572938
967, 1.4837611753901
968, -0.5598106224065305
969, 0.5085709992727061
970, 3.4035595983473286
971, 2.309798280863106
972, 0.8757347922060035
973, 6.163720553658095
974, 8.861436199352283
975, -1.2715759294078453
976, -11.591620108516054
977, -15.083070901959672
978, -12.939489108490307
979, -6.217721444402287
980, -2.1618395636228342
981, -2.495731548338881
982, -8.869012934187595
983, -14.207342565434828
984, 1.7945553015870246
985, 29.14483267071091
986, 47.93741800921498
987, 58.18863606061268
988, 59.98239843247575
989, 48.877456216070186
990, 25.027518928203335
991, 18.75157393022164
992, 32.13634458242905
993, 32.49607039312377
994, 22.74844109108335
995, 30.475390930276262
996, 43.47235420396055
997, 39.695967491294596
998, 32.64871599167736
999, 36.36897310543145
1000, 29.22692539032596
1001, 1.8112762937885236
1002, -5.907541118400786
1003, 13.60070263917396
1004, 33.2150118581626
1005, 47.11232628552989
1006, 57.67119011506247
1007, 60.76126719718104
1008, 47.99365081339738
1009, 34.69775508225621
1010, 36.79619143097625
1011, 31.14491090430738
1012, 6.461888456700763
1013, -13.188367621998623
1014, -22.485743453733903
1015, -22.746553130503344
1016, -12.343543919354943
1017, 15.242289299942513
1018, 48.003282171642695
1019, 57.73037559204431
1020, 56.8773782887406
1021, 57.178697033412845
1022, 53.46235233661446
1023, 44.01210718289303
1024, 37.234557811389095
1025, 34.62402293874948
1026, 36.0593903131612
1027, 37.497122351710914
1028, 38.667535407527794
1029, 40.3286349347286
1030, 43.529726881346505
1031, 46.12734392320726
1032, 46.83135647752533
1033, 49.30223297096791
1034, 53.50545816651311
1035, 49.77128083797243
1036, 40.01364510163785
1037, 37.26751807868368
1038, 38.9673905613663
1039, 38.40645559486529
1040, 33.915066506515814
1041, 24.058195496002554
1042, 7.68118266477768
1043, -12.701721396868834
1044, -18.09452000729698
1045, -7.827624291949178
1046, 2.6488527252085987
1047, 10.254529800718956
1048, 9.75757096693087
1049, 2.1294969401646995
1050, -10.836111259754944
1051, -16.136419957900216
1052, -8.389548862704942
1053, -6.036213140914242
1054, -11.040924891346549
1055, -9.344020061209903
1056, -0.5325565271473351
1057, 12.417568658070195
1058, 23.667479651357553
1059, 26.448607995487237
1060, 19.752329431972157
1061, 3.8462707033472725
1062, -11.463829845125929
1063, -23.252633997065914
1064, -24.129319883330027
1065, -16.54376733610252
1066, -7.8658144277724205
1067, 7.847799712324559
1068, 38.19087594104167
1069, 79.93171379060504
1070, 132.63005915680787
1071, 175.38565058998802
1072, 207.2108055511453
1073, 238.55328393731043
1074, 265.7549328188238
1075, 278.5529009476686
1076, 279.676064606183
1077, 272.2484986127747
1078, 259.2798603304923
1079, 242.72039002319025
1080, 227.15614810408442
1081, 210.97132835886487
1082, 184.71015366870188
1083, 149.3041118867941
1084, 107.86403336413969
1085, 70.81720658508902
1086, 52.33044275754719
1087, 33.9004104400974
1088, 9.79242301640943
1089, -9.215947411839352
1090, -19.53715756049951
1091, -13.233648746815106
1092, -0.4489618842371783
1093, 5.643060145909203
1094, -0.4403488584257502
1095, -20.494236264008123
1096, -34.11372732228347
1097, -35.92971744510896
1098, -22.55482866972943
1099, -5.4987299441309005
1100, -7.981709570479325
1101, -7.727950517758927
1102, 13.18259235837968
1103, 36.69678115928082
1104, 53.54593143531747
1105, 61.23706866751945
1106, 56.00190906385615
1107, 29.104536566100705
1108, 4.756270356117511
1109, 11.34633593942408
1110, 20.775597795450267
1111, 17.86773671452147
1112, 5.528983228370635
1113, -9.82083200671832
1114, -12.06868811972845
1115, -5.100801436326037
1116, 4.03083464303154
1117, 16.163080710771737
1118, 29.825651032047972
1119, 32.904944610094844
1120, 27.081505588045275
1121, 33.61055633104024
1122, 41.15516667790416
1123, 24.652575197288115
1124, 2.804356279279091
1125, -9.570723922365687
1126, -14.474994981241707
1127, -12.569012183803352
1128, -3.2545807164078724
1129, 8.648400907368796
1130, 12.201382032620586
1131, 14.119369068806918
1132, 20.72813424855758
1133, 23.244340130479486
1134, 18.65742195943176
1135, 7.995225792994006
1136, 0.5042060604087055
1137, 13.993892312257685
1138, 39.30872422521088
1139, 63.84696795419677
1140, 68.83618505637878
1141, 51.82922358686983
1142, 38.490970327481136
1143, 29.234007130613918
1144, 16.16427945332771
1145, 5.348876441503307
1146, -0.2836138017992198
1147, -6.60150647383125
1148, -12.589698739351206
1149, 0.2673372888971244
1150, 20.36234380330734
1151, 13.981972486994891
1152, 0.9256014221095938
1153, -1.1446911700913915
1154, 6.449824484706369
1155, 22.153822595054862
1156, 36.12173858383403
1157, 44.062096685406686
1158, 40.069301873476434
1159, 36.3337067946768
1160, 41.12125789692709
1161, 44.2097863918184
1162, 41.662387917648175
1163, 29.89947170593632
1164, 17.98472795374255
1165, 22.804561894336075
1166, 24.59041685913371
1167, 12.895535810736874
1168, -5.225689261440948
1169, -23.85461835213573
1170, -24.32943096948702
1171, -7.133287840230878
1172, 26.02376396452837
1173, 48.501137226824994
1174, 49.030586821062116
1175, 39.40022576867068
1176, 27.138363813823617
1177, 25.497897039623695
1178, 26.5422086016938
1179, 22.529152700153645
1180, 16.533757859082016
1181, 9.497588084827385
1182, 1.6964671413275028
1183, -3.515453405536846
1184, 0.7536434788198676
1185, 7.9954496426553305
1186, 14.426216416466104
1187, 19.391858696015333
1188, 20.550417819028553
1189, 10.451289506355806
1190, -2.3487724989709022
1191, -7.546876927556696
1192, -10.42538731704417
1193, -12.091472178635286
1194, -5.9964020948846155
1195, 5.929617807787508
1196, 17.623014474393585
1197, 29.085890052887407
1198, 40.23273038339585
1199, 44.09687001667817
1200, 40.10549284143781
1201, 32.532952496581856
1202, 19.2093482108653
1203, -0.12001480892331529
1204, -5.7344373234259365
1205, 8.919403681963104
1206, 33.67472805873149
1207, 58.541636835971985
1208, 69.17104260072892
1209, 60.136484477212434
1210, 31.343499432950466
1211, 12.68449934331511
1212, 11.128129219866878
1213, 22.07283424248817
1214, 33.17986580672459
1215, 33.206529364339076
1216, 23.42608723948115
1217, 7.316230948169505
1218, -1.2775776475104976
1219, -5.594167982297222
1220, -11.726555660072336
1221, -5.853656848009905
1222, 15.71552575339274
1223, 25.52750311318414
1224, 21.752770293472622
1225, 11.292709063076018
1226, -3.685993273101303
1227, -19.71199883625195
1228, -14.670228443735596
1229, 8.160275629473745
1230, 22.377372100255343
1231, 25.553629136027666
1232, 18.445889273705234
1233, 8.583947158777846
1234, -0.8262922758444802
1235, -7.230282446596448
1236, -11.11320801459533
1237, -13.040751519409696
1238, -14.025774762873425
1239, -13.12814602803519
1240, -3.286980585558922
1241, 10.123950495372355
1242, 16.314946983259233
1243, 23.217368881718812
1244, 34.294715014257235
1245, 40.55068577893189
1246, 39.62823706890049
1247, 30.002601672817036
1248, 16.94592697857115
1249, 8.049996680102595
1250, 21.846071464226497
1251, 54.078162020057334
1252, 78.96589275953374
1253, 95.05978087611857
1254, 101.7876613798785
1255, 96.64834198877497
1256, 86.11998852595298
1257, 89.6345658664959
1258, 86.97101295771517
1259, 62.27857703294558
1260, 43.01149747660929
1261, 38.88734266950087
1262, 42.83840467625214
1263, 53.06993806615583
1264, 63.2636507974903
1265, 68.52998499799378
1266, 69.1731886902844
1267, 70.89334985998494
1268, 73.00869073700596
1269, 74.18280804683491
1270, 71.54752220610953
1271, 67.32353401873661
1272, 71.88233607702932
1273, 68.85570975138944
1274, 42.279517293119625
1275, 16.095255232114596
1276, 0.8329135234271234
1277, -0.5295636763535185
1278, 4.1593346010763526
1279, 6.8129899387995465
1280, 3.1398568871841235
1281, -3.0623036526098986
1282, 5.480408210365113
1283, 21.139869839673338
1284, 32.700998356544005
1285, 26.15163142853271
1286, 7.343438785871513
1287, 6.866790523977215
1288, 9.993927103895658
1289, 1.9926476521459335
1290, -9.319100832279219
1291, -19.132084041209964
1292, -17.77035831487001
1293, -0.8671043490708144
1294, 31.67461723379438
1295, 40.60424459539081
1296, 23.62745897151035
1297, -2.4614864102377396
1298, -18.35742706292831
1299, -13.399866015272892
1300, 9.647059521764277
1301, 39.51109644878579
1302, 49.059168084475914
1303, 42.97515370560495
1304, 26.15021986803049
1305, 9.135372983823345
1306, -2.981319521862588
1307, -7.601786268678097
1308, -14.085813508163483
1309, -23.25245742563402
1310, -18.067616082179484
1311, -2.1707553127967003
1312, 17.18006391587869
1313, 31.849768723712714
1314, 36.97649736547646
1315, 26.06114697543262
1316, 17.138431585253784
1317, 27.675413208883583
1318, 28.631527552912758
1319, 17.314509210009874
1320, 6.4441821168275055
1321, -2.809869321721635
1322, -9.404738698435267
1323, 1.0458986195540092
1324, 23.518321685419778
1325, 40.39636933721977
1326, 50.62552772605568
1327, 53.603422899105226
1328, 47.91444027622356
1329, 36.73871473566351
1330, 24.557453947589238
1331, 10.20162955581418
1332, -2.8612343310478536
1333, -6.401765683698613
1334, -5.076500615279656
1335, -3.049605256312134
1336, 1.454154949083204
1337, 4.74350443638923
1338, -2.541615955909947
1339, -1.2977899525571956
1340, 15.677259949033669
1341, 24.434553156809216
1342, 24.250045785079237
1343, 19.108551789169724
1344, 6.823892608641017
1345, -8.283230518254186
1346, -12.932982592700682
1347, -6.567491263428565
1348, 9.602974302392795
1349, 22.767947877067854
1350, 30.87428468497137
1351, 38.148259445027634
1352, 37.37070594955367
1353, 25.934715040587434
1354, 9.079043725295833
1355, -4.439711521759364
1356, -7.327274881406993
1357, 0.7993991012876904
1358, 17.315617301766906
1359, 32.37194586689111
1360, 30.68653230383552
1361, 8.355467707218395
1362, -0.14783505647119455
1363, 2.6234577754466955
1364, 6.131119362846675
1365, 9.027274165549898
1366, 9.861592810827915
1367, 7.8683961955434825
1368, 12.895689651116754
1369, 27.66995116428734
1370, 28.393425445592584
1371, 18.857928152503064
1372, 12.60919741655789
1373, 1.2909894126896688
1374, -10.366422478620734
1375, 3.625106571080778
1376, 19.14227049824285
1377, 15.414499420089214
1378, 8.795324987274853
1379, 2.6584294846393277
1380, -2.3293632533714117
1381, -1.5328977481981383
1382, 6.86255238208696
1383, 22.519319861771237
1384, 27.46599461199412
1385, 11.434333307639463
1386, -2.365891211512462
1387, -10.405594327099152
1388, -13.686136584138694
1389, 3.4312507599115634
1390, 36.22575394577234
1391, 46.68469284008188
1392, 40.6521087719193
1393, 25.43608336477564
1394, 9.217930354222062
1395, 4.929730068675781
1396, 24.071587343650208
1397, 28.599582765438754
1398, 16.43653077303361
1399, 12.057937200059769
1400, 4.781143736608101
1401, -6.326667492573506
1402, 2.222047191439742
1403, 12.052845811705993
1404, 2.395979545165119
1405, 2.0345937038705415
1406, 8.156843311093326
1407, 2.6803509645210397
1408, 2.883578926001519
1409, 11.556904776088686
1410, 12.973821917368241
1411, 10.866881679365179
1412, 8.106976503495389
1413, 0.8449236831720555
1414, -5.4569014980293105
1415, -2.1028416934827874
1416, 12.618042508612689
1417, 36.48826882078038
1418, 58.8070677703995
1419, 69.12029822943077
1420, 61.41604281730997
1421, 31.519595468823354
1422, 0.2999139257844945
1423, -14.602266408521245
1424, -10.843082100616812
1425, 4.44336714839028
1426, 20.01797881697712
1427, 16.307210102378576
1428, 3.3750702087040736
1429, 14.788341694996689
1430, 23.461003246100063
1431, 19.37323776147059
1432, 12.24545062266543
1433, 2.1967884961736672
1434, -7.60659870453901
1435, 0.7836621077822201
1436, 18.88483703415477
1437, 31.095696558712916
1438, 25.440197486900615
1439, 13.813341502175263
1440, 22.957802250434725
1441, 27.228483498274272
1442, 19.584341022236913
1443, 6.000566762204926
1444, -2.336986332436936
1445, 0.3296881395476703
1446, 18.088173082514913
1447, 36.77555992098951
1448, 43.23214957318305
1449, 29.534838116931496
1450, 6.542008199615793
1451, -9.474402975469275
1452, -14.386116089863208
1453, -9.464849993206371
1454, 1.78208120409181
1455, 18.904390932133083
1456, 33.387656748837344
1457, 26.347743858589638
1458, 17.68332170421263
1459, 14.588545838506889
1460, 6.5877448115916195
1461, 1.7363897563541286
1462, 2.425403182485752
1463, -4.490743461454713
1464, -7.437679594875135
1465, 4.77880969000671
1466, 21.615557023153087
1467, 36.73493765020203
1468, 44.4698415010439
1469, 36.30586698228308
1470, 17.083425780761445
1471, -0.10444042626204464
1472, -1.680881928960389
1473, 8.91024287936716
1474, 15.218621184402764
1475, 16.3914253990597
1476, 12.944405397842274
1477, 5.565287936186451
1478, -1.5269551215487809
1479, -5.00356482482357
1480, 2.283604195888074
1481, 13.502123330463746
1482, 23.0011166350414
1483, 32.01995744612259
1484, 28.136156080322507
1485, 6.6924158633987645
1486, 4.7811813712464755
1487, 12.002009242599343
1488, 11.827499239515419
1489, 15.129999290561045
1490, 15.544344214906232
1491, 3.5479023728348693
1492, -2.981683625632286
1493, -5.327163471876702
1494, -10.513038324989793
1495, -6.61165891308201
1496, 6.287530624344072
1497, 21.072317852782817
1498, 26.235721319052573
1499, 21.792336319663264
1500, 15.576174290929885
1501, 8.196016960903762
1502, 3.7890864502019213
1503, 9.657171938096326
1504, 24.767004412211463
1505, 39.9535647803591
1506, 35.32483549761491
1507, 20.085954263457097
1508, 0.7911234612233784
1509, -17.427952858575736
1510, -17.570537722722293
1511, 1.553392607233036
1512, 12.937241978459951
1513, 13.324354131475957
1514, 5.7889032795110325
1515, 3.4721439821969398
1516, -1.929490008425546
1517, -9.946428973118145
1518, 4.129932939752507
1519, 25.99037307896606
1520, 43.550168376977126
1521, 57.71056919815828
1522, 42.18950872770574
1523, -2.4881909550067576
1524, 0.18903522520577098
1525, 25.1709395669518
1526, 44.87410134534821
1527, 42.79229768687355
1528, 14.856143889412579
1529, -23.35760193226588
1530, -9.32593056438509
1531, 21.402454241768282
1532, 35.5892745084725
1533, 22.28085793515538
1534, 7.5003976940224675
1535, 8.772823535889529
1536, 16.93188945504744
1537, 15.256619450598919
1538, -1.6829396866273783
1539, -15.760561832460098
1540, -20.272836092928173
1541, -13.448948305440354
1542, -1.543073433067093
1543, 5.221845594545812
1544, 5.897008795798229
1545, 17.578541565068008
1546, 24.714759710662747
1547, 19.251579620517987
1548, 5.77091190486999
1549, 3.062549078023494
1550, 11.033565658167845
1551, 3.187425274830275
1552, 4.339107907813741
1553, 14.935564032520688
1554, 3.784588305453326
1555, 2.2436134169856814
1556, 8.667911033865494
1557, -11.021558805019595
1558, -16.502079785460865
1559, -0.9167035511595714
1560, 17.919790670974635
1561, 17.344782796726122
1562, 0.7689381667464659
1563, -11.901071506261815
1564, -12.2752653780949
1565, -1.7268521177161347
1566, 12.871417317694522
1567, 14.280846318025851
1568, 8.769575852708385
1569, 9.006643179228377
1570, 6.461099693258802
1571, -2.4744305720441844
1572, -13.86239724414736
1573, 7.292150515466346
1574, 48.941504971071026
1575, 97.17982171521817
1576, 138.32475556530153
1577, 168.8386869155338
1578, 188.40870670836557
1579, 201.5935161993507
1580, 207.9564034895734
1581, 210.60607011236107
1582, 218.7599847590218
1583, 223.527911510761
1584, 216.4416631458489
1585, 189.03255536533698
1586, 160.31795557465102
1587, 132.38628761579548
1588, 97.9673144804533
1589, 50.09566169484606
1590, 9.139463706099377
1591, -8.219825515562206
1592, -3.551038304913618
1593, 7.342041685883942
1594, 11.626991363171328
1595, 11.609825872966667
1596, 11.21870526217981
1597, 10.643769794359741
1598, 6.3953581577743535
1599, -7.8503057619645915
1600, -25.57910413123409
1601, -23.49237106210103
1602, -11.742031898244477
1603, 3.1648065841518473
1604, 15.670538634954482
1605, 20.5689078778164
1606, 23.305272669140322
1607, 30.793057828845576
1608, 39.44547864256856
1609, 32.591071876404385
1610, 7.075106482891442
1611, -2.447338624200256
1612, -5.260780517499825
1613, -5.029077689764108
1614, 3.810886334506449
1615, 5.330703172952781
1616, 0.02408890834522026
1617, -1.1691743219757882
1618, -4.646378953194926
1619, -4.2839609358920825
1620, 6.159087315740635
1621, 14.644816272832031
1622, 23.205357230343907
1623, 29.717703845338747
1624, 18.089616573443436
1625, 12.000059508604409
1626, 15.421051465099026
1627, 11.747283335647808
1628, 21.265066928002398
1629, 30.226012130349318
1630, 21.45131676240544
1631, 33.30705248328468
1632, 42.88924358286977
1633, 31.057797364740964
1634, 10.396238116226414
1635, -9.946295621933587
1636, -21.76981499070098
1637, -12.584830819167564
1638, 1.9529306605227248
1639, 8.456515608733298
1640, -0.9501441502434318
1641, 4.135408756401375
1642, 4.161577057156592
1643, -5.980077397018249
1644, 13.812851771796431
1645, 23.831916338550855
1646, 17.43274962962232
1647, 15.319873030918188
1648, 0.4212236129969824
1649, -8.706447315969399
1650, 1.3588191049084344
##END=



