##NAMES=
##LOCALITY=
##RRUFFID=
##CHEMISTRY=
320, -20.524580636270002
321, 2.888525626079172
322, 21.865310299799603
323, 26.29928047192425
324, 19.087461738869933
325, 5.315465965056319
326, -10.876464580100219
327, -17.56577594113969
328, -14.744175795027331
329, -8.544718415888383
330, -0.07397020336247806
331, 6.164323131333731
332, 7.857039388960402
333, 7.936053546693984
334, 9.905670773002385
335, 16.597722211916334
336, 35.90883634397869
337, 62.4680764603454
338, 70.70388583778185
339, 57.335183978410896
340, 43.64363786800277
341, 37.73308951760646
342, 33.95720218941642
343, 27.670050453969452
344, 21.947887094815087
345, 24.681574453718895
346, 30.132380844084764
347, 23.941865484076516
348, 6.4153357891600535
349, -5.341781384042406
350, -8.539810175289858
351, -6.444900007567412
352, -0.3644744720095332
353, 7.531973982346244
354, 14.88824303965339
355, 20.551052948062534
356, 23.568563338509193
357, 24.24506404946078
358, 24.328095765317812
359, 23.95820506779455
360, 21.810958084582126
361, 17.472237896146908
362, 10.362848524247966
363, 1.1552023055710379
364, -6.018343413834373
365, -4.958942310774546
366, 3.0667500174031375
367, 14.913135936135404
368, 28.198240724269453
369, 32.11905957800445
370, 25.454220416104363
371, 16.63087433304281
372, 8.561863405505392
373, 4.597243955455269
374, 6.059509716566936
375, 8.884401081383658
376, 6.274481185983859
377, -0.08479158037425805
378, -5.108056339898212
379, -8.344944701361783
380, -6.342954069106781
381, 1.34561304012459
382, 9.394547379877622
383, 15.52942560720021
384, 15.479705484797705
385, 6.353832477918331
386, -4.24946390088553
387, -6.020805681906495
388, -1.4965399215579964
389, 3.058779775820767
390, 7.510620804982864
391, 10.44403237014285
392, 11.484073688508943
393, 7.908906531883076
394, -1.0499871685933613
395, -10.534795277591002
396, -18.53593848048149
397, -24.059889879842558
398, -25.488195578453087
399, -23.431543280903497
400, -18.7864405960936
401, -12.020782855885045
402, -6.441505009678622
403, -2.3056415751470922
404, -2.4416592381430746
405, -7.340611496458223
406, -7.0111806611130305
407, 3.5417960324648448
408, 18.518409693920148
409, 33.17520424889335
410, 51.81773268242887
411, 81.37595092832998
412, 112.97111042725282
413, 134.06640056405558
414, 146.09027954986868
415, 164.61444823358306
416, 191.27547001376115
417, 208.535081675127
418, 210.6233950846581
419, 211.45940364347825
420, 219.69731359518119
421, 229.91464308934974
422, 235.59248870463125
423, 237.04698646433735
424, 235.01041624518984
425, 229.31584896851655
426, 219.181579444029
427, 204.59501105163145
428, 186.11079542660627
429, 164.0780954258944
430, 143.1117957444594
431, 124.95141332481762
432, 100.49554555778559
433, 63.34889703519184
434, 33.37159810355115
435, 25.543823192825585
436, 31.707913402528902
437, 34.75992815875543
438, 30.542958638079654
439, 18.086964087846354
440, 0.11952094221942389
441, -16.82024405190714
442, -31.876806585263694
443, -32.178755474988975
444, -12.30306006185674
445, 14.774524166438823
446, 41.60713532647969
447, 56.927174019999256
448, 48.52520853587248
449, 26.682614262229436
450, 13.937860378636287
451, 12.89380517839163
452, 25.010210549166004
453, 48.78507914837792
454, 62.122929876087255
455, 62.02564062854253
456, 58.867534379103745
457, 56.051010116739235
458, 51.87474373582609
459, 45.384105229501074
460, 38.05437186859308
461, 31.337242424487158
462, 22.408252972910304
463, 6.393490318147997
464, -10.706182384559725
465, -14.875330502830366
466, -8.382847005781514
467, -4.5508966768084065
468, -4.753975679402174
469, -7.884797555509067
470, -13.547027811705448
471, -13.040095311160258
472, -2.7113582194924675
473, 6.643066196749714
474, 7.44495176098917
475, 1.7893229867577247
476, -7.740904190630317
477, -16.592503238701283
478, -15.093589673056158
479, -4.847086591845255
480, 8.897581370298212
481, 24.925367952624583
482, 31.266579468355303
483, 27.402262172778137
484, 23.26775492482011
485, 21.11298084198279
486, 17.097447516332068
487, 9.772684147904329
488, 6.270756470683409
489, 10.154458490791512
490, 16.21731513186569
491, 17.514715810100824
492, 18.778824493706452
493, 28.22309575005511
494, 39.32375786367356
495, 33.807435625362814
496, 14.419494298012978
497, -2.32115467735548
498, -14.514579445334675
499, -21.86883107990161
500, -24.80678242074009
501, -23.44798924602219
502, -17.68795540174051
503, -10.063881552981002
504, -1.3746521698558354
505, 4.352139980371248
506, 3.8800860300598288
507, 2.912138454959859
508, 8.617089496997323
509, 15.610490452095291
510, 11.266046200056735
511, 3.262008420753773
512, 11.401178285826063
513, 35.465323936764435
514, 66.61440406294332
515, 98.62369144816239
516, 122.00727945359085
517, 135.00452512970514
518, 140.2610990493431
519, 138.8139340779344
520, 136.89269894575136
521, 137.43489354685335
522, 136.33900662917677
523, 130.65968782148957
524, 114.1069845669499
525, 79.6242346176441
526, 39.7944534582557
527, 20.08889165693472
528, 14.43733390329271
529, 11.015549655424365
530, 8.610241273032443
531, 5.77611344428351
532, 2.6866844208207112
533, 2.255285725003887
534, 4.745060770702366
535, 8.61282367275544
536, 13.731331723929543
537, 17.851389908704732
538, 20.490519879307612
539, 21.809800819199154
540, 21.905108520247268
541, 23.33721026501189
542, 27.997432530170954
543, 28.664027645761962
544, 17.332278187664997
545, 4.9570890626637265
546, 5.29819356678945
547, 16.928650170543733
548, 37.13843951486069
549, 60.94762466607153
550, 78.06816849471943
551, 86.17249351769715
552, 78.07746620901344
553, 55.22303334375738
554, 34.16410195766366
555, 18.00670915531464
556, 7.539927436951075
557, 1.24851797109568
558, -5.191079429318961
559, -13.70125328326867
560, -18.311155046492786
561, -15.835535829635774
562, -10.29589897491769
563, -4.347912087753684
564, 0.8508743874990614
565, 3.92938918928121
566, 4.6442429362259645
567, 2.7559609138261294
568, 0.7806119492738617
569, 3.1987272841352024
570, 8.323217155530983
571, 9.952565105949361
572, 7.503795958250066
573, 0.10872260369842479
574, -10.37817755012702
575, -14.696054987755815
576, -11.9334131270316
577, -3.1700036839588392
578, 11.21073032617187
579, 20.329943437367092
580, 21.21209767672326
581, 17.4581394636416
582, 10.585846547456185
583, 6.245641552663528
584, 7.839732865810674
585, 9.0233645037938
586, 5.984905085706032
587, 0.16791688146031447
588, -7.11528031697253
589, -12.336627405069066
590, -10.817887101143697
591, -2.878379118598332
592, 11.492647253041014
593, 24.912041926760594
594, 21.187183125718548
595, 6.023167788566752
596, -2.9408227667804567
597, -5.567530772908867
598, -1.8970871578039805
599, 7.069556327664031
600, 15.832984202402258
601, 22.20202097117044
602, 22.0011413889938
603, 14.936262070065823
604, 4.394242372615736
605, -7.647150530380259
606, -13.31132966571522
607, -11.002456596603679
608, -7.7318449474410045
609, -5.630718563584651
610, -0.1560650824358163
611, 10.972710663078487
612, 15.151886232509696
613, 5.2950882065242695
614, -2.536611247339806
615, 2.005824859990298
616, 13.324586340641417
617, 25.710414132008736
618, 34.698370099092244
619, 35.09588218058161
620, 28.45315658524123
621, 17.041622421363172
622, 4.891552589073399
623, -0.27874297790094715
624, 0.19106472448447676
625, 4.209622222001144
626, 9.38656951296798
627, 8.006060875248295
628, 2.6652940145795583
629, 3.4188030042910214
630, 9.821221319510187
631, 16.456080645408747
632, 21.33693118650308
633, 17.379767121633904
634, 5.9390352195873675
635, 1.23517734623465
636, 3.8536077922067307
637, 5.242960171378854
638, 3.5392721563443956
639, 1.9087764976948165
640, 0.6510195513251347
641, -3.0119169074364436
642, -9.391473977377245
643, -6.197097583423783
644, 10.520630394008549
645, 25.062441436340123
646, 29.599064537438153
647, 31.30988509047802
648, 33.51858668913701
649, 33.14426328116406
650, 28.537641255508333
651, 23.622934939739935
652, 20.908618697586917
653, 19.140811286526514
654, 17.386617714219028
655, 19.98365449356743
656, 27.456322865382845
657, 30.317281580926192
658, 18.89975435698625
659, 1.3094593476880618
660, -12.71881130822112
661, -20.71125220468184
662, -18.206596682357485
663, -7.772526596005719
664, 7.212000364553205
665, 23.767196372863964
666, 33.381522493034936
667, 38.627403811977274
668, 44.8812947071292
669, 51.02936963802313
670, 54.28428110744153
671, 51.91151668426119
672, 37.41476495385814
673, 15.520573747247454
674, 1.548847434419713
675, -4.805476747121702
676, -3.2513013110133215
677, 4.964150266411252
678, 15.764099353480105
679, 25.830890880912648
680, 26.248244502510715
681, 18.602040791791296
682, 12.609531685332513
683, 8.429829845368658
684, 3.098427269193053
685, -3.5774094261428218
686, -8.46434172129102
687, -10.337699291833815
688, -3.019370116453956
689, 12.805539580990171
690, 24.133120342802158
691, 29.211959608375764
692, 30.193005843435913
693, 27.443855983427056
694, 20.96121417282393
695, 12.131674736720015
696, 12.11963351877921
697, 20.992543920914613
698, 22.941488725399267
699, 15.930526235029447
700, 8.448981135936265
701, 3.6706423464229374
702, 5.007060344700676
703, 12.673774658955153
704, 18.412612856683154
705, 20.02265254578242
706, 14.56057077329615
707, 2.45905895499709
708, -3.6404469764129317
709, -1.4688886948706568
710, 4.614209362258862
711, 13.284304387163502
712, 16.365687398891623
713, 12.103688235732989
714, 5.6148325238414145
715, 0.1285154719989805
716, 9.590742022861832
717, 36.886614436801665
718, 51.31441349671513
719, 44.99345572831999
720, 31.935177702659985
721, 16.757193052043476
722, 3.855783785632866
723, -4.719987333963672
724, -5.779755105440927
725, 0.8535686459513272
726, 3.1007240724061376
727, -1.9720571074853979
728, -4.579325259609504
729, -2.2304722347334973
730, -0.17031174623707557
731, 0.14587502554104503
732, -1.0361929742639404
733, -3.69240866291193
734, -7.130317926166754
735, -11.007868938755564
736, -10.908632484251939
737, -6.190643783828364
738, -5.303066134513301
739, -9.776400339967495
740, -9.796628605215119
741, -3.132206256274003
742, 4.407043597372649
743, 12.032037301168202
744, 22.467275060242173
745, 34.53815231875569
746, 43.6946925903726
747, 49.17329469963124
748, 54.253341839707446
749, 58.66232164104758
750, 53.57642139533982
751, 37.6216689513235
752, 15.636557768057173
753, -7.518457835443769
754, -17.595829668145598
755, -13.116088036217207
756, 0.6971957414330063
757, 20.866576340284155
758, 26.550480184896514
759, 16.65735934915483
760, 5.980981777505804
761, -1.0189846969028622
762, 2.8428243121566084
763, 15.816324668761808
764, 21.29745722517282
765, 17.746570399201573
766, 8.182893271567536
767, -3.1882286774803106
768, -5.002077937564536
769, 3.937892634657146
770, 24.57764589977296
771, 48.05833222597175
772, 45.216020851926714
773, 22.411215141155026
774, 7.210127575272509
775, 0.9727235153313813
776, -0.755499576521288
777, 1.323177498761197
778, 6.659234860997458
779, 11.591665485740577
780, 5.902707728711448
781, -0.916280348278633
782, 9.548229699124477
783, 26.793101254164412
784, 27.624576590370452
785, 21.05554605892621
786, 22.5153233211513
787, 23.003098933736965
788, 9.327999885404097
789, -3.408110236243374
790, 1.3590678148693769
791, 10.444415040278727
792, 8.888314920099674
793, 10.196759067172025
794, 26.12484186942902
795, 37.74267147198725
796, 30.933093672637824
797, 16.5502743821894
798, 2.103772449625012
799, -5.744457328186854
800, -4.2092019132696805
801, -0.8892491677529506
802, 0.7994973326271975
803, 4.948659496682467
804, 13.515972659641648
805, 24.633139000730807
806, 35.87290494467243
807, 46.30326272270622
808, 54.356302383125694
809, 46.79531126887514
810, 22.900156979073472
811, 5.511630999705176
812, -0.42548331463740396
813, 0.14478211333153013
814, 6.189722995088687
815, 16.72941082431589
816, 27.63457954437763
817, 24.546303427694966
818, 12.092931656565725
819, 14.268090943547122
820, 24.967262829635274
821, 23.498699701327496
822, 11.838604003687124
823, -1.7900254354617573
824, -13.288144140600707
825, -15.943821287522042
826, -10.048809848610745
827, 4.579331740119869
828, 19.12627532032957
829, 19.500320564408867
830, 10.409266968530574
831, -3.0984108816919615
832, -10.810598912131354
833, -4.9483758418755315
834, 2.246863018849581
835, 3.2286835136110312
836, 3.8184797815906677
837, 7.087812413029951
838, 13.791137852839256
839, 22.896523939486542
840, 26.975632499565563
841, 23.25882303843582
842, 8.69075827137749
843, -12.942946630676943
844, -16.133081670095635
845, 0.10862323136234409
846, 13.259744742423209
847, 20.173938879556317
848, 23.401213017568352
849, 22.17562110628387
850, 13.024170278888505
851, 2.2696139701661195
852, 7.003389007602891
853, 17.732945459198618
854, 12.344670110284369
855, -0.6743704690516097
856, -7.601435914392823
857, -6.485780034880008
858, 5.626699595662103
859, 17.76823574141099
860, 19.123138385168204
861, 12.05614993110703
862, -1.4896940558483038
863, -7.388487320781678
864, 0.06680081792774217
865, 12.516397889359268
866, 25.608990673018525
867, 28.067844863003756
868, 18.39104908895888
869, 7.960846364624558
870, 0.4927247433156481
871, -1.4393187985433542
872, 1.0020946459412698
873, 2.63616185619685
874, 4.066740783826845
875, 8.10450983952569
876, 14.161285715155373
877, 21.542742282852032
878, 22.695507751850073
879, 6.286920377807746
880, -11.452886364966616
881, -15.448925320935814
882, -10.842388462791405
883, -0.957908593841239
884, 5.6137852349443165
885, 4.2121157366300395
886, 4.130991767751311
887, 8.404548289879585
888, 11.527535560776869
889, 12.004107797798497
890, 9.438893974279381
891, 4.551950598466647
892, 1.7203258146582812
893, 3.6686321119477725
894, 19.11319145228026
895, 39.55237629900648
896, 43.41566666649578
897, 34.3846725976382
898, 20.490352579954106
899, 9.075824269612895
900, 9.621323213465075
901, 14.302363303486345
902, 15.776106177951988
903, 11.066284170411109
904, -0.8120331810614516
905, -7.244218199314673
906, -4.612759734498923
907, 0.8775514684061818
908, 6.948188157170534
909, 6.389846786567887
910, 1.7025413643532374
911, 5.647415808887672
912, 17.407353265380152
913, 28.676816708521528
914, 35.531662738323575
915, 31.20547042244789
916, 17.57065262892138
917, -2.629332133902608
918, -11.254015064795567
919, 6.060977973497302
920, 24.896235743383386
921, 30.072905404512312
922, 25.88849778942722
923, 14.712256613199315
924, 3.714417568431145
925, -2.790913705793173
926, 6.9630923631457335
927, 28.098118392537344
928, 30.366230940137484
929, 17.21678891607189
930, 4.191696599880743
931, -3.3591141091610552
932, 0.6760145195389669
933, 12.7709585406501
934, 29.857955011311333
935, 42.34539759958534
936, 44.91924583674063
937, 40.301635828693634
938, 30.108855080138255
939, 19.396130986941444
940, 9.821231255537896
941, 4.009974573461932
942, 2.632067207579894
943, 9.248560696357345
944, 22.04804645975355
945, 33.17706974328166
946, 35.12054927677491
947, 16.646361099192745
948, -4.6098078477880335
949, -12.268644725282229
950, -11.548173675602357
951, -4.7808877644042695
952, 12.301389822461715
953, 39.71259756052905
954, 50.028623768720536
955, 41.82859168759205
956, 37.95532046085691
957, 38.65029141019295
958, 35.31074281107476
959, 26.591905584575215
960, 11.064344159253778
961, -0.9125283926823613
962, -0.07536202650135237
963, -2.3313155229720905
964, -17.356042356347643
965, -18.034159777741934
966, 3.640600763671955
967, 14.108329236935333
968, 9.384668353171037
969, 18.37969527795667
970, 33.915457509458065
971, 24.14799414626441
972, 2.8302598370228225
973, 0.4023602024012689
974, 5.884165713412585
975, 7.190242455849784
976, 6.350006286694224
977, 4.935268151335549
978, 1.2193940685115194
979, -5.035343298959106
980, -12.000316904644023
981, -17.535005090861887
982, -11.880733474792123
983, 0.6778847807204329
984, 5.314035990910725
985, 10.071698720825225
986, 28.505321257198375
987, 45.67381915747228
988, 49.42374339582102
989, 40.74491551031815
990, 21.22611504757515
991, 3.8404287608736922
992, -6.167079261985691
993, -3.4072969739468135
994, 11.435097079059688
995, 33.448097152562696
996, 46.97222478148478
997, 25.902777190665347
998, 5.120560498861323
999, 20.92419269069387
1000, 29.38561768892305
1001, 8.970927916912842
1002, 3.219971226143116
1003, 19.639224522056793
1004, 21.516113045284328
1005, 10.489481067566885
1006, 15.386833380136977
1007, 23.09912930214705
1008, 5.748395665769294
1009, -8.959633024933737
1010, 6.282451900779051
1011, 24.993814501410725
1012, 30.642827561570357
1013, 21.345974637759355
1014, -0.0420027838435999
1015, -12.792541537813577
1016, -13.40818660338391
1017, 2.229208739273872
1018, 23.726094687126533
1019, 29.283772373579268
1020, 23.63581541550775
1021, 11.896632658098042
1022, 8.665071285963677
1023, 18.666735913828234
1024, 25.47478561598018
1025, 24.42984121771906
1026, 12.953164306693907
1027, -3.063840428722415
1028, -7.831313651182882
1029, -4.388760515617832
1030, 2.921164510057224
1031, 12.804163032721135
1032, 24.6903281343657
1033, 34.241085667051266
1034, 40.36773373471988
1035, 43.366352245657254
1036, 42.55457643440241
1037, 35.37727568227501
1038, 23.369003170235374
1039, 9.733082374026708
1040, 2.0213877586097624
1041, 4.885583627615233
1042, 2.7710635114385695
1043, -9.757926866962862
1044, -13.99351624056635
1045, -8.15875103690587
1046, -2.8453646519310496
1047, 2.8260933848919194
1048, 12.92153785018354
1049, 16.719099067388015
1050, 3.0376817051505896
1051, -9.970782567693277
1052, -14.410950029885043
1053, -14.858246445544864
1054, -13.755445394058825
1055, -16.95947032902859
1056, -19.976658999584743
1057, -9.889100870354014
1058, 1.1790162825313928
1059, -1.5118644080753256
1060, -3.425427880051757
1061, 2.1578044581833637
1062, -0.28321209150226423
1063, -10.866114387404195
1064, -8.42640574435518
1065, 2.1644416691401602
1066, 3.2372064924206825
1067, 5.998336415982976
1068, 24.216326658659455
1069, 58.284213429666124
1070, 109.3878369277536
1071, 156.7545084481617
1072, 195.57770017541634
1073, 222.05364747013846
1074, 240.23821522663275
1075, 259.61040717941705
1076, 277.5581378251245
1077, 290.82576614752725
1078, 288.44627525412034
1079, 266.4470500890934
1080, 233.9144632056873
1081, 196.8495773087693
1082, 169.5631929458268
1083, 144.96455548358244
1084, 108.64032144876865
1085, 69.21622074108654
1086, 40.7175119079443
1087, 24.275284945670137
1088, 18.1224183821505
1089, 12.189489107113786
1090, 3.6445158853953217
1091, -10.171911553348764
1092, -22.019482039490413
1093, -22.13544059743799
1094, -17.274863440056833
1095, -11.204930012955629
1096, -8.007263958965723
1097, -7.5984327952437525
1098, -5.89942864098748
1099, -4.691994659878674
1100, -8.346519217947389
1101, -13.89778977903552
1102, -18.602977043964074
1103, -14.24791590593395
1104, 0.9457510119109429
1105, 17.234696987015923
1106, 27.959700264781986
1107, 20.859939911398214
1108, 5.864479224730985
1109, -3.9380460895254146
1110, -2.2369756936818703
1111, 12.096747728994615
1112, 16.984223355127142
1113, 11.207791909126172
1114, 7.561975346685813
1115, 7.699398340276275
1116, 11.384412814521056
1117, 16.405079547148034
1118, 20.793667982262832
1119, 12.561060657313647
1120, -6.406631836599445
1121, -14.784030616561722
1122, -11.895965949313904
1123, 0.8339062714958345
1124, 14.824339929994494
1125, 22.277436390949333
1126, 19.25190038545361
1127, 7.493156948617525
1128, 2.5978384208688112
1129, 2.450286219593181
1130, -0.487179308656323
1131, 1.062255333972189
1132, 13.169873522003854
1133, 22.097187307254444
1134, 23.911309848526344
1135, 24.16236630467847
1136, 19.810479786593078
1137, 2.2266074666354143
1138, -6.19365382698652
1139, 13.239219172795856
1140, 44.343840510617156
1141, 74.86859618526069
1142, 82.54341436156983
1143, 70.386932459121
1144, 52.88215808067798
1145, 33.03063548609725
1146, 13.298306011457953
1147, -0.5133499074054271
1148, -6.377533976374707
1149, 4.358200041420787
1150, 26.067143917341127
1151, 40.988752360142826
1152, 41.639472004988875
1153, 23.156425894467702
1154, 0.3852305728369174
1155, -15.711044004997348
1156, 0.9878475099631032
1157, 36.15768646974857
1158, 51.94672344833498
1159, 53.380758492199675
1160, 45.649131101145485
1161, 38.51696609956571
1162, 33.86076217782556
1163, 27.491748669124263
1164, 19.656552377507523
1165, 11.455242871410974
1166, 2.6823312967812853
1167, -7.022354354325671
1168, -6.152334574822817
1169, 1.804705734750769
1170, -3.795777910639117
1171, -10.587572722516143
1172, -1.0824029159821293
1173, 10.182994763320949
1174, 16.65731698874015
1175, 23.39794475076087
1176, 26.65412279383827
1177, 14.861578522138643
1178, 3.733309966660727
1179, 7.960669371649601
1180, 15.661972004265408
1181, 21.40122699057156
1182, 23.840551730361767
1183, 19.455364516838472
1184, 2.4724244212861777
1185, -10.829197942440715
1186, -12.289688669473435
1187, -9.725549600537306
1188, -4.901300117720439
1189, 2.2151578885773233
1190, 11.49639988819672
1191, 21.231855466844536
1192, 18.56824862416852
1193, 2.5142877552107166
1194, -1.933839981645633
1195, 3.7793656626972734
1196, 10.47361958333704
1197, 16.45373817138352
1198, 19.9166394682361
1199, 9.686054938524649
1200, -8.58163363003132
1201, -11.24040801871024
1202, -0.22951708189248166
1203, 20.517183788089824
1204, 40.49918734663288
1205, 53.342140035331795
1206, 64.7423464439562
1207, 69.23208568131804
1208, 54.65199590982229
1209, 33.245797450814734
1210, 14.221287371918152
1211, 6.931787259558405
1212, 13.371006362833668
1213, 36.561374165434245
1214, 54.84516331500481
1215, 48.55044750499337
1216, 43.48562487920299
1217, 44.266456079625186
1218, 30.578847531846804
1219, 11.494743274306074
1220, 5.516357345760753
1221, -0.44883745981269385
1222, -9.773651326368508
1223, 0.7565385047423661
1224, 20.181051460395793
1225, 13.057512245363341
1226, -4.37549652836924
1227, -19.105113174778126
1228, -23.992894675087427
1229, -17.96412656666098
1230, -2.1772826501501186
1231, 8.56377012300436
1232, -0.5084229809517637
1233, -11.428692366512678
1234, -16.57806786522724
1235, -6.117677961175559
1236, 10.964261728213842
1237, 20.32423622637407
1238, 16.321426999557843
1239, 1.6471338371507045
1240, 1.9515167381150604
1241, 15.443853720918923
1242, 32.57971572565657
1243, 37.28120612429029
1244, 23.71160185725057
1245, 8.813571977098945
1246, 0.6204731229368008
1247, 6.7341248125162565
1248, 16.769916941422252
1249, 25.35451142060265
1250, 37.639429589355586
1251, 50.89099946980468
1252, 55.020939858029124
1253, 53.26704937293698
1254, 47.29456761022948
1255, 26.51497989444033
1256, 5.250089936018867
1257, 20.5314336822521
1258, 50.402597368176885
1259, 70.92947819894653
1260, 84.57532183663261
1261, 90.3509277269186
1262, 83.20414893942825
1263, 62.44982873526487
1264, 29.74252047171467
1265, 12.698119087408031
1266, 11.331760821847183
1267, 7.25483406401554
1268, 11.737344483767629
1269, 35.060501412282065
1270, 31.812360707333028
1271, 3.0720396099168283
1272, -1.238825409333458
1273, 2.090660431510514
1274, -5.999000602508659
1275, -5.230018126613231
1276, 5.269058063570355
1277, 7.053251599571013
1278, 10.091115735756375
1279, 25.359902181405232
1280, 40.59020582666972
1281, 49.14371533477879
1282, 40.863337892522395
1283, 25.39350188282924
1284, 12.698031242684465
1285, 2.976230874139219
1286, -4.75349810568423
1287, -10.354056575065897
1288, -12.97254784284678
1289, -10.708266646406173
1290, 6.798183745473125
1291, 32.81516180998824
1292, 36.22677392641026
1293, 22.716439782740963
1294, 1.8985910112710371
1295, 7.6530187846774425
1296, 34.033615081466905
1297, 45.706469407967234
1298, 36.0244237469351
1299, 5.539070099583114
1300, -15.976208221703928
1301, -22.44236808597998
1302, -9.922487712781276
1303, 6.3387015392168
1304, 16.48196100215273
1305, 7.70675352700755
1306, -4.252149895540242
1307, 8.537896662740877
1308, 14.014095472301506
1309, 3.5408743032189705
1310, 6.97370664532491
1311, 11.216856652496062
1312, -3.6869736927737904
1313, -11.493439413113265
1314, -9.075876968607645
1315, -16.352987826496246
1316, -18.84302111535135
1317, -1.6929182033654797
1318, 20.013717693755552
1319, 36.69105596361669
1320, 34.861507534403245
1321, 24.073941672786987
1322, 12.568047303112508
1323, 7.181140156883885
1324, 5.41898619149606
1325, -1.4553208357847325
1326, -4.36400817503727
1327, 0.4806994349182787
1328, 8.632597652344884
1329, 13.757661806273973
1330, 8.68480232234333
1331, 0.572194855944872
1332, -4.118121352281378
1333, 6.86759713551146
1334, 20.8910044973627
1335, 24.24043282229104
1336, 16.956676502395112
1337, 7.0425224743853505
1338, 12.716473988268717
1339, 18.65003656959152
1340, 16.211945987222407
1341, 5.957880054329962
1342, -2.6688220584369446
1343, 1.8411466030538577
1344, 16.32592336634025
1345, 31.851543894157658
1346, 23.90416004410781
1347, 5.997890236487365
1348, -6.908188174888892
1349, -6.677228934389859
1350, 0.5450601006223224
1351, -1.2272891823945429
1352, -3.1404764036497
1353, -0.6124249119561682
1354, 6.218969511272007
1355, 13.56380422238044
1356, 15.146803867660765
1357, 6.339835206405041
1358, -2.967824095124797
1359, 14.117378679188278
1360, 34.26623538010335
1361, 40.05932664060265
1362, 38.88203169988037
1363, 34.96384932503315
1364, 32.70230137701674
1365, 30.577839811309786
1366, 24.810834727245947
1367, 5.420902504542028
1368, -11.691276608758471
1369, -16.045249976894866
1370, -8.556200731581157
1371, 2.995474027624823
1372, 5.88227670444212
1373, 4.778300775408752
1374, 2.536812091171214
1375, -0.03194484192681557
1376, 3.908589792735711
1377, 17.163905370958673
1378, 15.174167656506597
1379, 7.062181772593249
1380, 16.613733812305327
1381, 23.196627837508913
1382, 21.68341810035463
1383, 22.388606277552753
1384, 22.669806697652348
1385, 19.874276357774306
1386, 14.724954020006862
1387, 6.757871993095705
1388, -3.8631572755207344
1389, -9.862077163503272
1390, -6.691790662596304
1391, 11.996518221072165
1392, 23.67837535281251
1393, 15.202495335638105
1394, 6.6381711097701555
1395, 8.876326373358552
1396, 29.861539198343053
1397, 43.807135200956054
1398, 42.04185207875162
1399, 22.770302908392296
1400, 0.7993398170351611
1401, -11.766654924840623
1402, 0.19028279580379603
1403, 18.33396932821097
1404, 20.49321859771635
1405, 13.514865902498968
1406, 5.033067756176024
1407, 6.730608715303333
1408, 11.150842667741472
1409, 14.125863572690378
1410, 15.206121339237598
1411, 16.008680344899403
1412, 16.832308988222394
1413, 12.233743331187725
1414, 4.211408712129469
1415, -2.1220548507481
1416, 2.7562951007180345
1417, 16.914668892271493
1418, 28.004828811097468
1419, 33.0807504205045
1420, 32.48414049667463
1421, 31.933239863176368
1422, 34.889709756531374
1423, 39.18651378385903
1424, 16.3907195030979
1425, -5.188555045443536
1426, 12.221124757247253
1427, 31.837829586092994
1428, 37.83269865480179
1429, 23.232311972073603
1430, -2.7951176247461262
1431, -25.284627521713446
1432, -9.19735295820692
1433, 13.478865511381628
1434, 17.304058927893493
1435, 3.236301689351876
1436, -8.022006276789398
1437, 3.656004450630462
1438, 17.615557807723235
1439, 22.381368667022798
1440, 8.782020635135723
1441, -0.876537670408652
1442, -0.7773429196950019
1443, 2.40442221019066
1444, 1.564533711347849
1445, -4.093292592889611
1446, -2.5214688524329176
1447, 9.404848954605768
1448, 29.931867494827657
1449, 32.21769968517765
1450, 27.53253688538507
1451, 33.43482225239495
1452, 33.96765399276455
1453, 30.621389558399642
1454, 31.843751224965672
1455, 16.314350089237905
1456, -6.5114582058354245
1457, 4.156955267919329
1458, 11.09457949038051
1459, 2.0596812468797907
1460, 4.806666645670703
1461, 5.187018029557294
1462, -1.7896677728172108
1463, 13.695802212692797
1464, 28.306776708245707
1465, 21.012636909832963
1466, 25.41350006837274
1467, 32.59449654438549
1468, 24.30706918284295
1469, 16.391634215793147
1470, 7.467735854992043
1471, -8.994193435124544
1472, -2.6385820759701346
1473, 18.803072582649293
1474, 13.298737911239186
1475, 2.8137268716868675
1476, -3.3162344101529015
1477, -8.680418097594611
1478, -5.123220281696831
1479, 6.151555227621884
1480, 2.835579258317466
1481, -1.016847365729518
1482, 5.549451602442332
1483, 22.830222620771565
1484, 41.80285162634027
1485, 54.11422819529389
1486, 53.61977718631488
1487, 39.836581593384835
1488, 15.672719676751512
1489, -0.023461944469545415
1490, -3.874061145353153
1491, 5.278540321286982
1492, 24.55356223240051
1493, 39.645275705333916
1494, 31.044427993781937
1495, 10.114873330249338
1496, -11.665671300964277
1497, -22.408679973123526
1498, -11.015882440774021
1499, 12.30054302335202
1500, 16.56690284365868
1501, 21.79353472314051
1502, 27.870176202785387
1503, 15.402542129743324
1504, 6.579427827676227
1505, 7.38181052910295
1506, 5.18899082588905
1507, 12.15380468470994
1508, 24.47484973768087
1509, 13.351485975789728
1510, 4.799130300673369
1511, 8.676432435460356
1512, 5.922074810825961
1513, -0.6533961625900702
1514, -6.496057078127706
1515, -4.592330041448349
1516, 2.878472434879768
1517, 11.088190061744626
1518, 5.840160580024531
1519, 1.0139806029765168
1520, 4.887549307947211
1521, 9.994456203690788
1522, 9.927063814881876
1523, 2.415906598820129
1524, -5.681564318107576
1525, -8.419059637767077
1526, -3.9451312410401442
1527, -0.7395689498184765
1528, 0.2676501081632523
1529, -0.5526101304076292
1530, -1.3742736466024326
1531, -0.8212124009260151
1532, 3.6164544461607875
1533, 18.881737841554695
1534, 28.142609615294532
1535, 20.541611564945015
1536, 0.9492608460695919
1537, -7.761697720381562
1538, 1.4053588877059155
1539, 1.0396621407212479
1540, -4.4740390215879415
1541, -10.090587802866139
1542, -13.031074994006758
1543, -4.635235490166906
1544, 11.896685620105018
1545, 4.7923672221518245
1546, -2.1362374992795594
1547, 3.893979757645411
1548, 16.26746655768693
1549, 18.250591675101077
1550, 6.538914318564821
1551, -4.01704117904319
1552, -4.689518365918502
1553, 2.8246081920633515
1554, 4.768420128070375
1555, 2.575267444277415
1556, 0.13394457507229163
1557, 3.3091293864786167
1558, 12.861200111600738
1559, 17.659726140396288
1560, -2.6848710712056345
1561, -18.383775706506185
1562, -24.294439087258525
1563, -25.229098045418596
1564, -4.045710018643604
1565, 20.386552658841538
1566, 14.411550436297603
1567, 24.404091445096583
1568, 28.239754653330237
1569, -3.5621124294416404
1570, -2.1609179977494932
1571, 25.74950346535843
1572, 62.06188876528768
1573, 102.3290809936052
1574, 117.64320851725915
1575, 96.02489761777542
1576, 87.34466712401218
1577, 112.16731579647467
1578, 154.78325879216345
1579, 177.91947183314778
1580, 193.12659319695695
1581, 204.66949138844257
1582, 203.47647523103342
1583, 189.76458899110912
1584, 166.97177336525147
1585, 142.80771606551025
1586, 131.03105689699942
1587, 112.73511532676503
1588, 55.62136347469277
1589, 14.750146499880884
1590, -4.874268966880209
1591, -8.360889221613888
1592, 5.5184697047538975
1593, 12.359139454476917
1594, -3.223026866557575
1595, -12.03335804957078
1596, -8.153649444323037
1597, 3.8361598602900813
1598, 3.261548316936114
1599, 6.064672247006456
1600, 8.029319811147161
1601, -16.285594663020674
1602, -28.139220732775357
1603, -18.98465786360066
1604, 3.213192092001009
1605, 21.910605124016456
1606, 28.6457736482962
1607, 20.087383752131245
1608, 2.1500704178811247
1609, 1.573801365908821
1610, 25.829584175276523
1611, 30.034392462040614
1612, 20.20492193561313
1613, 3.708475007202651
1614, -12.582839529218745
1615, -9.252322072185962
1616, 7.7228636995459965
1617, 17.61975836860256
1618, 25.365996766480293
1619, 34.506578858236026
1620, 43.25313846949166
1621, 30.30438564452652
1622, 7.019136243840876
1623, -9.99751350640554
1624, -3.322173474043666
1625, 12.969947227931698
1626, 23.38354450318684
1627, 11.977783194087351
1628, 3.421604106381892
1629, 5.996483241628084
1630, 17.15111703538696
1631, 12.214863612692625
1632, 3.1311545768840006
1633, 2.7036583122035154
1634, 11.626028511474487
1635, 32.53216475772433
1636, 51.051568077406955
1637, 39.434600277015306
1638, 27.918118503354435
1639, 18.933196878306717
1640, 5.4360148917180595
1641, -4.627259622960537
1642, -7.233698538589124
1643, -3.12018007250299
1644, -2.3815351956718587
1645, -0.3142528111752654
1646, 2.481761354948958
1647, 0.578586674997041
1648, -1.2889595187693885
1649, -4.788502332925873
1650, -10.895758918663887
##END=



