##NAMES=
##LOCALITY=
##RRUFFID=
##CHEMISTRY=
320, 17.38093199162722
321, -3.4692684037313484
322, -20.47769105556199
323, -20.79862757553201
324, -12.675096072733595
325, -9.704695835071561
326, -9.429807322173474
327, -2.4649696117530766
328, 11.373011796202718
329, 18.358812308078996
330, 15.179659779263147
331, 11.611888432213618
332, 13.02003731976447
333, 14.174826175732505
334, 8.458452455532097
335, 1.329011851391897
336, 4.843982732535096
337, 17.715340327634294
338, 24.727909211328097
339, 23.83959221472469
340, 24.41379771121001
341, 30.005067460435384
342, 33.414738836370816
343, 28.719599798112995
344, 23.04263050151576
345, 31.878471595859992
346, 51.914674005199686
347, 62.408347024506384
348, 62.66854185185093
349, 62.8568235930984
350, 65.35229597568377
351, 65.62043024698232
352, 61.32480966750518
353, 56.857877462750366
354, 57.192770453885714
355, 58.99637370897517
356, 54.262181416266685
357, 43.84067864317103
358, 33.79496041524135
359, 24.881613451043904
360, 15.99071866802933
361, 8.39077496833579
362, 2.091978906055374
363, -3.0520333108638624
364, -7.032270545144911
365, -9.530142731873639
366, -10.118799320478502
367, -6.977561100482944
368, -0.8463060081867297
369, 2.044968729966513
370, 1.3934228439484286
371, 5.3112705720318445
372, 16.934481386704192
373, 28.207788872827678
374, 33.945393363468156
375, 33.20483338670056
376, 24.600179557115098
377, 10.489567712804273
378, -1.1405723648626918
379, -10.275498873742436
380, -13.414715925828204
381, -10.391846500434895
382, -4.9983871511208235
383, 1.8984800669973083
384, 11.350982825280425
385, 24.549230810445806
386, 37.19705386712985
387, 44.82919942998751
388, 46.37708720892124
389, 38.98205856108507
390, 23.20910972625461
391, 3.0812487007237905
392, -19.242157963652062
393, -29.633569452351367
394, -24.255395170184784
395, -15.777410557610438
396, -11.226674744207685
397, -8.828430215993649
398, -6.747720082887554
399, -4.637941048024459
400, -1.973068359152876
401, 0.8932892419070413
402, 1.4094930889168609
403, -0.6169559718277924
404, -4.439914211406631
405, -10.042402318982113
406, -12.975739291578066
407, -11.16093375238097
408, -4.256740512312717
409, 8.574686745791496
410, 25.35037897495704
411, 41.915757406192824
412, 61.419737281709786
413, 91.12463747850916
414, 124.12094026256
415, 152.7797914997127
416, 175.92168619437598
417, 196.3452570988602
418, 214.97035523909472
419, 229.51108479112236
420, 238.54617818610404
421, 244.14810083452267
422, 248.80836902499232
423, 251.5842078499045
424, 250.36989058152813
425, 244.98511765737476
426, 235.0130867566586
427, 221.00799290527812
428, 207.71885299400128
429, 196.12216481435553
430, 185.2929696355841
431, 174.86752966713175
432, 164.65109617385588
433, 154.50682478734961
434, 137.4869992615413
435, 104.35800411526907
436, 61.15276766140141
437, 28.423142682562684
438, 5.7611477116315655
439, 0.3645163846977084
440, 10.097613091046696
441, 14.411315655655926
442, 9.32424488083052
443, 0.4007269797821209
444, -10.813143029721687
445, -16.548677718594263
446, -11.350181288853491
447, 0.2800074698284334
448, 13.241755181080407
449, 27.632321703657908
450, 39.54601341001444
451, 48.77977069915096
452, 54.91052511202179
453, 58.49739885121244
454, 63.64484128212689
455, 70.30104223316948
456, 66.3099051320296
457, 47.9370731907602
458, 30.065366353972422
459, 24.05268879064397
460, 27.341739144813346
461, 35.600646908570525
462, 42.16297475998681
463, 35.52507538656255
464, 19.26596008591241
465, 4.304481628255417
466, -8.390757924352329
467, -20.830311436196553
468, -32.878832416123714
469, -32.20229355811989
470, -16.471882072034987
471, -5.2768090757385835
472, -5.875429901011557
473, -6.610166590981862
474, 0.21925787536338248
475, 5.682504276141572
476, -1.274012236492581
477, -13.640371836279883
478, -18.938870878207126
479, -17.246238586933032
480, -8.028509164648312
481, 8.544473125315108
482, 28.32541506529651
483, 48.166655936535335
484, 54.386523631761065
485, 44.17709918045557
486, 28.81438032118058
487, 12.883112066537251
488, 6.846174089065698
489, 15.932114965092296
490, 30.284014020453014
491, 36.90025843736885
492, 36.49420607955199
493, 30.307818624936317
494, 19.743352335022337
495, 8.581428119799966
496, -1.6305033912776707
497, -9.852699702755217
498, -16.40692383105943
499, -20.03705795602764
500, -20.677437142092458
501, -17.74613120157619
502, -10.901759645583752
503, -5.0661060924448975
504, -2.436909185755667
505, -3.0160175243649974
506, -7.067693312614665
507, -7.237106155013407
508, 6.265044996190682
509, 27.839751717672243
510, 43.11624363890496
511, 51.42469320894679
512, 51.85197996009765
513, 47.71385723061758
514, 59.45751309568277
515, 88.7363473123587
516, 118.34853357497377
517, 145.34816021543338
518, 161.1801201659564
519, 163.2944362156013
520, 156.77695921280974
521, 144.10399098859034
522, 133.7755940425168
523, 131.8957775312074
524, 129.02605315402798
525, 114.57743419500548
526, 92.11150368422113
527, 67.72220482472767
528, 43.89174258568801
529, 31.014264973897298
530, 25.207961767620873
531, 15.133540145643565
532, 1.3506130473901976
533, -2.941064751893464
534, 2.6380740329009313
535, 5.325596250313538
536, 3.051965515181564
537, 9.353117008180561
538, 29.26822055300272
539, 46.18388392646966
540, 52.181769240410176
541, 53.01079556939794
542, 52.91698828719382
543, 47.12046832599117
544, 30.323130156796196
545, 10.928887038275207
546, 3.696975664825459
547, 6.1406473074985115
548, 13.974247714221292
549, 25.940617697216112
550, 34.53403262414713
551, 39.07544555342065
552, 38.6190503122275
553, 33.08649261881192
554, 22.780140717201448
555, 8.467970518322545
556, -1.1503550191496288
557, -4.99570965734074
558, -6.063918962904609
559, -5.489015809034299
560, -3.9177545068396284
561, -1.5782314005059561
562, 0.38154152700963095
563, 1.118036233321618
564, 1.2740853464247266
565, 1.4791230091655052
566, 0.1900871133811961
567, -5.097924684989266
568, -11.864769936046741
569, -14.377169965776375
570, -11.389096100885126
571, 1.0795461756738405
572, 20.89640048543106
573, 34.02350847328762
574, 37.963145710920344
575, 26.769162510405295
576, 2.296968458518677
577, -14.407597900040855
578, -20.324318606114502
579, -11.821762140814826
580, 12.191497009651812
581, 36.15870058535802
582, 52.06112984019501
583, 59.689164301255914
584, 58.93727905809146
585, 49.764750379217276
586, 32.14954053939027
587, 13.162420303956878
588, 0.46599952537417266
589, -7.471647542879964
590, -11.765708195089246
591, -12.726870793544094
592, -10.255643927182064
593, -5.046542527702059
594, 1.4245793156360378
595, 9.152760486609623
596, 17.301319572928605
597, 24.657593524487766
598, 30.494730383480146
599, 33.99180354788405
600, 31.660018440439217
601, 24.424900632014214
602, 20.566954316995634
603, 20.455373163191325
604, 15.612974919140925
605, 5.0509338927026874
606, -0.4448284638410769
607, 1.0912597876554173
608, 2.740369578154514
609, 2.0934898443833845
610, -1.4997138411335982
611, -8.602197285694729
612, -16.57008848188707
613, -24.238319177679386
614, -24.39580993486652
615, -11.341132895861392
616, 5.670683274013754
617, 18.72687471338577
618, 26.393177109762746
619, 27.661424991190415
620, 26.35473849883556
621, 28.050848642234996
622, 29.987487677710305
623, 27.10059419916388
624, 20.193072673727784
625, 11.263567115886417
626, 3.340118152231298
627, 0.5457754681528968
628, 2.8452242834896424
629, 10.38269984788758
630, 21.92372369145869
631, 28.567364286258453
632, 29.001711956850613
633, 20.801023888362124
634, 6.221099415681238
635, 1.2063480609263024
636, 6.312740206286435
637, 11.186602575258348
638, 13.328733730741078
639, 15.78908048894209
640, 18.687595281421636
641, 14.608422208020329
642, 2.6198282918403493
643, 2.1369375776689594
644, 18.611708876118882
645, 28.759354798197364
646, 23.685943403536385
647, 16.183490810026797
648, 12.296919380352392
649, 13.651099465466359
650, 20.586155502604015
651, 30.67411240314641
652, 43.17615109453027
653, 46.87455351488052
654, 33.406123389405366
655, 11.45004641616788
656, -10.290406763256215
657, -25.087447414321105
658, -25.3555144003044
659, -14.866263506918585
660, 2.999137216080271
661, 24.66664175695587
662, 42.53416839642341
663, 51.268287079580205
664, 42.64916401844948
665, 24.671018760340758
666, 11.55642530420846
667, 4.536277516720929
668, 2.529575415187992
669, 6.841250284247508
670, 21.25914679178686
671, 37.52563917299858
672, 36.65928742798269
673, 25.38719589884886
674, 24.538971354710156
675, 29.674159701897224
676, 23.738541881536094
677, 9.60917492748058
678, 1.758950043675668
679, -1.3712043571513277
680, -6.92536252965283
681, -13.755364168380765
682, -13.129204263329939
683, -4.7782384554839155
684, 8.672884459509078
685, 25.366979600648392
686, 30.994568392875408
687, 26.300840925121065
688, 24.43285074597452
689, 25.412318333518215
690, 18.55264445414059
691, 4.735970788224677
692, 0.26717580189006185
693, 5.454419219554438
694, 7.808434252812276
695, 6.7134471020049205
696, 13.152654856242862
697, 26.269155895224685
698, 27.772351767186592
699, 15.788482781342282
700, 6.544335774503907
701, 4.030898829936632
702, 5.614292078352264
703, 10.607459253693378
704, 15.757530550566116
705, 19.713959023356892
706, 15.63847262281115
707, 3.214291769641477
708, -2.250689801929184
709, 1.8466111805146284
710, 6.7462173129483745
711, 9.573585207394444
712, 8.415925502145456
713, 3.1311205687597976
714, -1.217510386963113
715, -3.6561627119317563
716, -4.073616167966975
717, -2.558916565223626
718, -0.8830265689116459
719, 0.6387368439873171
720, 3.403578443909737
721, 8.208351857450907
722, 16.536555036849677
723, 27.739808943476874
724, 25.932278242695247
725, 7.780519073093274
726, -5.135111043422512
727, -7.775759131622181
728, -1.8547227588924216
729, 11.554802630428185
730, 16.902925627417517
731, 10.130981776409499
732, 0.8729712210783873
733, -7.195328811266791
734, -6.575726976861915
735, 4.596290221156323
736, 19.374295161650025
737, 33.575268228599725
738, 31.395424090369943
739, 10.682197809704121
740, -2.447958968995863
741, -1.9353268311233478
742, 2.351242361708046
743, 7.372581061051278
744, 4.801348621614125
745, -6.195558975334279
746, -14.251559548383284
747, -16.95361922699476
748, -12.385771880046377
749, -1.1622495329893354
750, 4.4710384049985805
751, 2.4790418092761684
752, -0.10350427263392703
753, -1.1112322180465526
754, 6.4955629952514755
755, 22.85583885414235
756, 33.33881619289332
757, 34.9331673874849
758, 25.221954876252312
759, 6.741776922228382
760, -2.603607701396868
761, -1.5029201889733486
762, 7.261618666954746
763, 20.51354508260647
764, 19.643849357804356
765, 6.558002306137041
766, 1.4827620677638151
767, 4.632845079132949
768, 9.416050780959267
769, 15.934516258762415
770, 24.675880012494872
771, 32.89293714042287
772, 30.650750195324235
773, 22.84493155107839
774, 27.399310518590028
775, 38.05912483034581
776, 33.448911184289955
777, 17.533994826346316
778, 3.7668518176119505
779, -5.839778664625101
780, -10.03128049805764
781, -9.476199317376086
782, -4.810186818569036
783, 0.21415060635854388
784, -1.6026687330249842
785, 0.44462924486697375
786, 24.52908358014747
787, 57.82920528426348
788, 75.73523724635925
789, 79.67819769824064
790, 71.66045535620242
791, 54.19584809324806
792, 29.999689028413286
793, 10.712673965028898
794, 8.143300766960692
795, 10.630183964356092
796, 9.426795182472688
797, 10.64027499986878
798, 18.57034282174527
799, 28.099103791455946
800, 36.58376095357835
801, 34.26500190264187
802, 16.970829801374748
803, 3.2150247353224586
804, 1.0616966840302666
805, 5.692464342689618
806, 15.52760866911376
807, 25.38453410845159
808, 32.624494475907795
809, 24.884325118367997
810, 2.2394103168967376
811, -7.616689751831473
812, -2.318685113456013
813, 0.7144714838200343
814, -0.3941596167460375
815, 0.10793161245965166
816, 2.2128149903069243
817, 2.0706796349109027
818, 1.6072559554672807
819, 9.496516493192757
820, 20.75804146145265
821, 18.7029075919736
822, 6.636468811931536
823, -4.609251625307934
824, -12.363487321628327
825, -12.089978914775202
826, -6.197039684809624
827, 1.6508192544779376
828, 8.466147145541527
829, 9.159383751096357
830, 4.917191325405838
831, -2.478638756114833
832, -6.678810859080841
833, -2.3048117035550604
834, 5.949967926242607
835, 15.511071506741246
836, 24.22487647572143
837, 31.314482839734865
838, 37.66177086976586
839, 43.32117595086811
840, 43.64194070374833
841, 37.071293748124845
842, 23.554035681627283
843, 5.537356943083978
844, 1.8995091251586018
845, 12.911246977131213
846, 22.392366050228702
847, 26.820521726907828
848, 28.074013432754327
849, 24.72809046305565
850, 11.39074069661774
851, -4.952002036431622
852, -5.850533169142636
853, 0.5361852271694261
854, -3.013235740421351
855, -8.296615211381777
856, -2.0925995090815377
857, 5.316853907757832
858, 1.506213783532985
859, -3.3264067686832277
860, -1.2684567958131083
861, 0.227659206572298
862, -3.215841043141154
863, -1.9979746007243193
864, 7.986048320813097
865, 13.610280394791971
866, 11.108233032126009
867, 11.879213426642309
868, 17.77817879521126
869, 19.75235526031929
870, 17.210242455040316
871, 16.448095440338875
872, 15.568364521342119
873, 4.059689925813473
874, -11.67397730235325
875, -13.750341159845902
876, -5.460252695717827
877, 5.349103934438517
878, 17.93530689829231
879, 29.40906308558806
880, 35.42565580586643
881, 31.39112767472716
882, 26.91556305248423
883, 29.043431574944407
884, 28.574637090518536
885, 21.02915651954845
886, 16.690470107822875
887, 20.584354567333776
888, 23.20360867828049
889, 22.474091781800325
890, 19.4443952976153
891, 13.341762450879742
892, -0.6532339053910619
893, -16.388980087572236
894, -11.86386017103814
895, 5.832895177958562
896, 15.26408955649731
897, 16.024746524547936
898, 10.231318035175718
899, 2.677806032412718
900, -0.6925063669832525
901, -0.7850950135675703
902, 1.8415397301910161
903, 3.3207989186466875
904, 1.7958344716216743
905, 2.3770195048946334
906, 7.021945637636691
907, 14.899030677869632
908, 23.657309961426108
909, 24.919363544112457
910, 18.531493399812007
911, 10.152938151301441
912, 4.883490341749166
913, 12.106820269274976
914, 23.597718821634317
915, 22.928495474926876
916, 13.336933590335775
917, -0.3013717751182412
918, -9.210560809076924
919, -6.864865808237937
920, 2.1294532739916576
921, 15.588744535506066
922, 28.28958356002704
923, 36.397278819538315
924, 42.13952962819894
925, 46.010710505158386
926, 47.59330551283074
927, 47.5659397100153
928, 48.730358954099756
929, 44.846237248271336
930, 19.785778114377536
931, -1.5505381216639762
932, 17.39106474551545
933, 40.523914425262774
934, 26.460098233567805
935, 12.919131837552413
936, 24.059888193274674
937, 16.48851590896902
938, -22.07045091813825
939, -32.32685180888757
940, -6.625315178824621
941, 6.5614061215947
942, 7.114990624398615
943, 23.102576421187678
944, 42.70380731246996
945, 32.07655069254088
946, 9.099627043861801
947, 4.977361858304903
948, 12.446000431568791
949, 25.26661467604299
950, 34.909105711943084
951, 36.774069482170034
952, 24.830766813869104
953, 0.3382343710177338
954, -6.432737265326068
955, 6.702908748241953
956, 20.72831809294985
957, 29.703688783019516
958, 26.01305317728793
959, 14.563580224498764
960, 5.587793471905115
961, 5.128648733355931
962, 18.95531806849567
963, 27.828585007343918
964, 19.767453420845868
965, 7.797350756884498
966, -1.4877688057949854
967, -4.636186201506007
968, -0.8659471812152333
969, 10.18775556337414
970, 22.54181763160841
971, 17.38899191542805
972, 1.1455543174597551
973, -11.4751218018896
974, -17.054806190848012
975, -11.413217096397148
976, 0.6562612326979433
977, 16.42129642782129
978, 25.555345571531234
979, 24.875168878687873
980, 20.273739585648855
981, 14.662838036396806
982, 15.220401949007737
983, 16.84038617441138
984, 3.7723906771725524
985, -10.136921283259653
986, -4.083134006580167
987, 10.265418283923282
988, 23.502534670649766
989, 34.463650477910505
990, 42.50136491399462
991, 40.77192539988437
992, 31.33782648807255
993, 37.54590882714683
994, 51.09135405241659
995, 33.17169510915346
996, 0.12167115570855458
997, -12.181261451317368
998, -10.62950721728157
999, -1.850664735049122
1000, 9.289906474157306
1001, 19.81587620559003
1002, 16.96515875816749
1003, 1.2478755799684222
1004, 0.4757193635355179
1005, 12.47632448436434
1006, 13.154698443772304
1007, 4.558822556617542
1008, -4.981342108685112
1009, -5.631878606923692
1010, 13.342491165265528
1011, 35.65689172947532
1012, 49.44047909162282
1013, 50.62536873357158
1014, 39.369706096978916
1015, 24.310671399347484
1016, 12.485890102013855
1017, 22.97153386582613
1018, 37.66041419384783
1019, 24.590410209518268
1020, 5.584361750377411
1021, 1.4731390958136217
1022, 1.5576489547916026
1023, 1.8180609910859857
1024, 12.603318037552071
1025, 32.73829878339711
1026, 36.67190419361532
1027, 28.109217818789148
1028, 24.958752528171317
1029, 23.005113401655763
1030, 15.201876684744093
1031, 6.3623527445793115
1032, 0.8324336063378723
1033, 4.043049665482613
1034, 16.705375027388527
1035, 25.713547572527204
1036, 28.059566441012066
1037, 21.778327266671567
1038, 10.627871226650768
1039, 1.7815825703478367
1040, -3.0629769949455294
1041, -3.2713771534249645
1042, -2.758970531345767
1043, -2.8625457827242826
1044, 0.35996184051555247
1045, 8.415921789941422
1046, 22.228991178201795
1047, 30.64547039317904
1048, 9.097368449330133
1049, -17.031683460807017
1050, -20.998441462395476
1051, -18.046790459568
1052, -15.139068235049763
1053, -4.206786188696242
1054, 11.059831015320924
1055, -1.6363710865375651
1056, -27.50573564388833
1057, -23.770185050471355
1058, -8.214482624606717
1059, -2.8924416195227423
1060, -4.881720409199261
1061, -12.31949214348333
1062, -17.9873761879644
1063, -19.28098283375266
1064, -11.920920231560103
1065, 3.397956778230764
1066, 23.51474433709609
1067, 41.337725896193206
1068, 49.09840205927139
1069, 73.70176016055075
1070, 128.6708054141509
1071, 176.80980029581588
1072, 212.17328124009737
1073, 243.01118023587242
1074, 267.702615520318
1075, 280.8162558848162
1076, 291.3023076222935
1077, 307.51104483612517
1078, 310.0057423946241
1079, 292.489501927525
1080, 277.1881167661595
1081, 264.862563302755
1082, 240.5392000998213
1083, 204.57724155791584
1084, 159.938883721602
1085, 113.42004366564743
1086, 70.56863971507346
1087, 44.1893386226775
1088, 30.83490833831229
1089, 11.730145951589748
1090, -10.72765143830793
1091, -19.149377588300467
1092, -17.46186758418071
1093, -10.979199126101776
1094, -7.262600918623775
1095, -10.138841665434938
1096, -15.939077070583153
1097, -21.471674519404132
1098, -16.125001768404218
1099, -5.167915702284063
1100, -0.71611429260156
1101, -3.2118329541767707
1102, -12.353061234280176
1103, -10.286068526565487
1104, 5.8401274517323145
1105, 11.213829362004617
1106, 6.985742903360915
1107, 7.188154429660244
1108, 7.437659733300734
1109, 2.102878311819495
1110, 2.7380849150586073
1111, 12.541883391506872
1112, 10.093872415151054
1113, -3.619004194959416
1114, -9.580222319867971
1115, -7.021732948026511
1116, 3.8169650437225755
1117, 11.415400456944553
1118, 8.354907801593527
1119, 5.188963778794459
1120, 4.502395383455223
1121, 5.1340713542513186
1122, 4.865538270647903
1123, 1.2520910103621645
1124, -7.74742189051949
1125, -22.225607693790153
1126, -13.88342221304174
1127, 20.209437900297416
1128, 43.74134684654382
1129, 51.56699337605778
1130, 43.44370727746036
1131, 27.716466343095362
1132, 11.991470962691437
1133, 5.170386465281808
1134, 6.841115268861813
1135, 3.596069756597899
1136, -3.005689303226063
1137, -4.916001041165146
1138, -0.8287613600423356
1139, 9.997208190987749
1140, 13.772308693126888
1141, 7.518639484423602
1142, 4.52696117141204
1143, 10.15163942045183
1144, 33.40295883173576
1145, 53.49087857478253
1146, 52.718444840181746
1147, 40.2002612983556
1148, 21.06032145015797
1149, 4.476032391870831
1150, -0.9492769663897889
1151, 18.834238106040175
1152, 30.145995044544634
1153, 6.693124080162761
1154, -10.521735824687767
1155, -10.98549712554086
1156, -2.3804369492490878
1157, 10.914682195510977
1158, 20.874540479485404
1159, 15.613815971380973
1160, -9.998938917869964
1161, -13.947347550630639
1162, 7.40244648994485
1163, 20.63194852278002
1164, 19.950144738720155
1165, 3.518846075224701
1166, -9.719540898257947
1167, -9.51767603852295
1168, 6.350013003230288
1169, 31.825457672651737
1170, 39.725142857942956
1171, 32.59169556544839
1172, 16.91821259548533
1173, 12.616359338673192
1174, 24.859035346368273
1175, 15.371179103597115
1176, -6.468377062507898
1177, -1.3148735022764413
1178, 10.606745485554711
1179, 10.69207143372114
1180, 17.994688024274637
1181, 31.94142797755194
1182, 23.667206030340367
1183, 11.158461680763594
1184, 33.48137218813554
1185, 52.40456914118795
1186, 45.027486665824654
1187, 23.327817468367357
1188, -4.175678160200732
1189, -20.395924160764935
1190, -19.0049213103116
1191, 6.601207649296612
1192, 24.69498731294334
1193, 23.49495837375116
1194, 22.210999462479776
1195, 23.362372480393788
1196, 26.09538026977725
1197, 31.71845951412024
1198, 39.66430961883725
1199, 33.95422911582318
1200, 17.26351625969619
1201, 12.642621824257276
1202, 12.987227847367194
1203, 4.99835319868771
1204, -0.2850154415732504
1205, 0.14612117877231867
1206, 1.0101834478446108
1207, 4.085440812656088
1208, 14.389976192843278
1209, 18.963408549837823
1210, 12.326001677824024
1211, 22.61523165420067
1212, 45.71091830769774
1213, 54.084449295276954
1214, 50.56444507774222
1215, 39.55417159763783
1216, 14.73181131651154
1217, -16.253987479369698
1218, -19.801715264330596
1219, -4.482361134702842
1220, 11.858442631670641
1221, 27.046961307652055
1222, 38.06091798892612
1223, 44.98176992738718
1224, 46.608408126658105
1225, 40.287088245770065
1226, 24.242589617564136
1227, -0.8861971522669592
1228, -17.315163890592885
1229, -20.95311646642449
1230, -8.497263642927464
1231, 1.1772272213074757
1232, -9.31657491052556
1233, -12.49957897512968
1234, -2.44911372432216
1235, 8.923833526525414
1236, 18.159461332399587
1237, 21.825594369108785
1238, 14.430517116494684
1239, -2.4061416709469086
1240, -9.008872028978658
1241, -6.492346846573582
1242, -0.09824833899028818
1243, 5.928663800026698
1244, 11.818744964890357
1245, 32.05225146197972
1246, 51.238065107473176
1247, 35.55232552642883
1248, 13.935298792811409
1249, 7.061470257002384
1250, 14.154799808570715
1251, 32.87441454273085
1252, 54.40553087768558
1253, 59.63325258028817
1254, 38.2662730953507
1255, 27.27400938698429
1256, 35.72711934523795
1257, 53.105765966259696
1258, 59.7123410222207
1259, 41.981492873253956
1260, 32.88647177009034
1261, 40.931983184762885
1262, 50.94709026372675
1263, 55.64665370379407
1264, 48.43913201883606
1265, 23.54339647410643
1266, -2.903931091610957
1267, 16.436172195865765
1268, 46.62993166581873
1269, 46.24987233266893
1270, 30.583642528165456
1271, 9.643811301428741
1272, 1.798889031026647
1273, 10.203811615939685
1274, 35.54945964417993
1275, 39.10527497287967
1276, 18.816732953598603
1277, 7.437396753623489
1278, 8.110737285336654
1279, 18.757684063061788
1280, 13.321480264687125
1281, -7.584250531243924
1282, -17.719171099067808
1283, -10.806420089057156
1284, 16.428817834531856
1285, 35.19993989311888
1286, 35.00394910375735
1287, 10.502025710949056
1288, -6.2946828641383945
1289, 7.616686260545521
1290, 21.8921755930819
1291, 23.264088480250848
1292, 0.8433955369428077
1293, -12.639496326564768
1294, 4.180336742035706
1295, 23.111933901457633
1296, 33.37407956491052
1297, 27.020202532280564
1298, 7.503821856337254
1299, -15.562753113189956
1300, 1.193707676817212
1301, 36.40760062933987
1302, 25.28494959283171
1303, -0.9041715317798662
1304, -20.499091803143983
1305, -17.839651381113526
1306, 3.40771190862597
1307, 33.0058537900004
1308, 39.83031632712391
1309, 17.425240978773218
1310, 0.34110248536035215
1311, -5.230192948595231
1312, 1.5902798188558336
1313, 3.129929875165544
1314, -3.3252746178268353
1315, -5.1875517841363035
1316, -2.8180543364474033
1317, 2.112269265093346
1318, 3.371413612406286
1319, 1.133765530648816
1320, 1.421843807289406
1321, 6.360505291363097
1322, 15.075813849347469
1323, 13.094733272260328
1324, 3.5214606314762023
1325, -1.6200985268110344
1326, 2.133139541388573
1327, 15.549152205357586
1328, 28.65441072605563
1329, 29.775692889719267
1330, 6.959587571574048
1331, -4.759137191428863
1332, -0.6191022024811446
1333, -1.2864503699677243
1334, -2.0421973426466593
1335, 1.4150105171190717
1336, -2.6594982649544363
1337, -9.393012986519125
1338, -1.5912739709681318
1339, 3.83565389840237
1340, -2.4156857200425748
1341, -17.467375844696107
1342, -22.6717167882407
1343, 7.483673351269317
1344, 38.13056773441099
1345, 54.42230491784085
1346, 56.03601336793804
1347, 43.11305033868439
1348, 18.338368624504483
1349, 4.900994418788287
1350, 0.8615742630865952
1351, -4.873506298820985
1352, 1.1108428560467019
1353, 24.556549223995717
1354, 55.44078557025341
1355, 64.61722514097073
1356, 23.654178902729882
1357, -6.049011413488188
1358, -8.459834161538083
1359, 11.151371748812608
1360, 37.46208160525225
1361, 54.67439631813613
1362, 41.51826655464265
1363, 18.43600544018409
1364, 21.572112130716505
1365, 27.57677779909045
1366, 24.723704216163924
1367, 1.2350812399288316
1368, -13.174917914211164
1369, -1.4302186475511007
1370, 5.1409436276771885
1371, 3.658060925324662
1372, -1.131117240410049
1373, -0.6749745889740097
1374, 8.824741337368778
1375, 28.845752144464086
1376, 36.00406871496466
1377, 15.511503263189297
1378, -6.290601339923342
1379, -14.471908397082416
1380, 6.2333461511482255
1381, 24.29436904133081
1382, 27.01813487340064
1383, 19.822630810015653
1384, 14.96262282562725
1385, 18.61519765461594
1386, 8.732990457680444
1387, -6.091260129120201
1388, -8.01492421312787
1389, 4.236811938944356
1390, 26.53018784447204
1391, 40.662767808208855
1392, 34.777505124708114
1393, 7.701418207753022
1394, -2.747848509394771
1395, 4.892442746564939
1396, 24.62261077204448
1397, 31.038049511784948
1398, 25.9499403265022
1399, 33.47165588422604
1400, 40.44981402604549
1401, 38.40651446764127
1402, 25.820222901615807
1403, 7.4226120114842615
1404, -8.519233804633586
1405, -2.5215575265276584
1406, 15.24714781722605
1407, 15.038273623639498
1408, 8.701897617448822
1409, 5.056815066493755
1410, 12.373496348400295
1411, 28.185592952015213
1412, 44.95580381279137
1413, 42.30621203381111
1414, 24.733972236490217
1415, 4.203129590828439
1416, -0.33210430280860237
1417, 8.22442305213849
1418, 13.286107558991489
1419, 14.390567316972465
1420, 11.701657831979901
1421, 4.045002766346215
1422, -2.231774780395199
1423, -2.8548208016745775
1424, 2.49989481629882
1425, 9.65538046147094
1426, 12.462513135590143
1427, 18.324832341322008
1428, 22.607750330661702
1429, 11.220384660085983
1430, 6.838312569483833
1431, 15.240507505690175
1432, 16.59634762910946
1433, 9.387103267573139
1434, -3.891414332435261
1435, -10.291413276523826
1436, -7.581792431596568
1437, 3.5262350086741208
1438, 5.850961023960281
1439, -0.9476976275650486
1440, -7.995341983366416
1441, 0.055943635576795714
1442, 18.154487095124523
1443, 14.995946425347029
1444, 3.802851023587891
1445, -4.832520701467502
1446, -3.779892386762185
1447, 1.7988274710539827
1448, 6.078730943914479
1449, 0.37919435109688493
1450, -1.9411534024295634
1451, 14.672812772551879
1452, 27.71473976815105
1453, 26.294569408515372
1454, 3.328095251210925
1455, -4.166678274303877
1456, 5.727652116856007
1457, 8.167198138514095
1458, 4.018809598072494
1459, -1.4471767840063876
1460, 3.5300813434837437
1461, 22.551309404848325
1462, 46.863293850867876
1463, 29.47284037329814
1464, -3.034871668142614
1465, -16.96877907177486
1466, 6.801280362269836
1467, 40.52893838237355
1468, 40.05220024719483
1469, 14.780517891544832
1470, -10.6801285214176
1471, -3.7051614361300835
1472, 23.505194948576218
1473, 47.145070146062835
1474, 24.40423049085848
1475, -4.030964785324613
1476, -15.493034789787089
1477, 2.376179670595093
1478, 24.86495388366893
1479, 33.269962729880035
1480, 14.968068890684663
1481, -0.3932594466034516
1482, 4.491303030142944
1483, 23.72241718913665
1484, 44.155216363909176
1485, 54.973886127559126
1486, 53.218021992888225
1487, 42.971679798123205
1488, 28.633105547033438
1489, 6.030999464252318
1490, -6.80075854446568
1491, 9.904580119825823
1492, 27.136370674536693
1493, 29.707234841028367
1494, 8.72646666108949
1495, -14.328529208822147
1496, -20.19286310047937
1497, 15.243079919212505
1498, 27.547210625631124
1499, 11.529763600780598
1500, 4.791558373952967
1501, 8.605712754678507
1502, 19.44277157031115
1503, 26.77015542680988
1504, 16.634282455154107
1505, -5.431593775691681
1506, -8.613103465876065
1507, 4.324305984618832
1508, 22.537666267508257
1509, 15.468777514713565
1510, 5.847399246504892
1511, 4.599668358350982
1512, 1.7934085723543376
1513, -6.413331896220825
1514, -16.085241196196193
1515, -5.43925771092313
1516, 19.206564533689743
1517, 46.70921961300314
1518, 54.771855375427776
1519, 41.44384307991163
1520, 15.1176387917194
1521, 10.253480709492123
1522, 17.377422505276854
1523, 21.98893290508545
1524, 3.625544418574691
1525, -13.748751765503357
1526, -14.6636247815768
1527, -3.219738073323242
1528, 8.651176922690183
1529, 15.006213272277364
1530, 22.769408137837218
1531, 24.835218326541053
1532, 17.497485862954818
1533, 9.00313544771825
1534, 1.15786047272195
1535, -2.7999581441729333
1536, 13.017441241546521
1537, 16.145568929461888
1538, -7.830769634636681
1539, -24.255176918360576
1540, -19.36673443957352
1541, 9.071311271491368
1542, 41.52960076364684
1543, 50.57406212977321
1544, 35.32978872154945
1545, 44.46283896339855
1546, 53.20397199758213
1547, 47.03551619776158
1548, 32.362919280818915
1549, 14.67175683270807
1550, 8.409124742431004
1551, 41.69291915682447
1552, 54.124261556384454
1553, 28.5328823737716
1554, -2.2437534900707305
1555, -7.9936231308090555
1556, 6.002089541180112
1557, 1.8604588314967714
1558, -12.45398804664751
1559, -27.149626381397866
1560, -28.195620300969495
1561, -15.59056296540598
1562, -3.6182938899396504
1563, -15.423802995229607
1564, -16.02666537368509
1565, 0.4910271813810141
1566, 24.399218178190495
1567, 11.776650910233684
1568, -10.101986808443144
1569, -0.42580882901643236
1570, 21.812915053516008
1571, 47.19462226865494
1572, 63.84514392680694
1573, 62.638211210992495
1574, 78.31247658270831
1575, 128.67446003388864
1576, 170.29786626369946
1577, 202.25858229988103
1578, 228.0698731379971
1579, 252.5481251772369
1580, 273.4486537637663
1581, 279.1190457326836
1582, 243.3793075958381
1583, 205.8206049390742
1584, 181.45309741253345
1585, 165.64423592868798
1586, 143.62162238995188
1587, 103.8060278310868
1588, 40.70373187099767
1589, 11.433815569353555
1590, 9.185824352589407
1591, 10.683730849852054
1592, -1.9894956715484113
1593, -12.58478179855183
1594, -8.195388909956137
1595, -7.098903463034503
1596, -9.643472356160373
1597, -12.257356599672448
1598, -6.542438369997626
1599, 7.719716780962699
1600, 16.6927855821923
1601, -8.723582985378243
1602, -15.603487571670712
1603, -1.0543680724570095
1604, 10.974600198127973
1605, 12.8977580152075
1606, 5.351450329028239
1607, -3.5401288004393336
1608, 12.65246055445732
1609, 20.717616525462063
1610, 1.306824177313274
1611, -9.71574205828415
1612, -4.800139075998004
1613, 12.678835519754557
1614, 25.659026133144607
1615, 20.03827144965294
1616, 7.136328829903732
1617, 12.038531582088808
1618, 10.172821236652453
1619, 4.485433687706063
1620, 3.6585214658628047
1621, 1.8097220785175523
1622, 11.935488115368571
1623, 28.14912170298976
1624, 2.524296676146605
1625, -13.41736221889255
1626, -1.5577718636570808
1627, 26.697409986183402
1628, 35.26531468033181
1629, 26.517500216344615
1630, 19.49446978517267
1631, 33.44189562362499
1632, 49.87771810884851
1633, 46.73587040690177
1634, 0.9209168543736723
1635, -19.5387978048293
1636, 2.9625704514639892
1637, 39.21637220206753
1638, 54.92833715942015
1639, 49.79956633382608
1640, 38.53269238076177
1641, 38.43949744889687
1642, 26.594712005630527
1643, -2.845517785773609
1644, -8.178269771831992
1645, 6.383880788648639
1646, 31.79563702811697
1647, 48.254606431908314
1648, 12.605216638388583
1649, -21.72625370023229
1650, -5.722497376990077
##END=



