##NAMES=
##LOCALITY=
##RRUFFID=
##CHEMISTRY=
320, 13.566083148180041
321, -1.6890339033607233
322, -9.755958234861282
323, -2.6869035018316936
324, 10.751350808862298
325, 14.194416333687514
326, 8.560391728665763
327, -1.4194180862091343
328, -14.279925957930573
329, -20.284115619939257
330, -17.281431534822786
331, -6.035851856296631
332, 13.997251752019565
333, 35.630019496873956
334, 45.82841472009477
335, 46.245605667946165
336, 41.54515365697944
337, 32.99377838720238
338, 26.768477173273823
339, 23.714001032619763
340, 19.68333550517673
341, 13.098280722312666
342, 6.774239635631147
343, 1.3178696898949056
344, -0.9736267356106509
345, 4.934530414967412
346, 17.0722761380066
347, 24.467163549968518
348, 26.395568783566432
349, 26.00848576266162
350, 24.176160108428576
351, 24.673716245207288
352, 29.446287698410742
353, 35.40857898878994
354, 39.06740972350008
355, 38.663012125160094
356, 29.98216332191032
357, 14.991599668045637
358, 6.058131488998697
359, 3.822668842197345
360, 8.375006995521744
361, 20.10522891282153
362, 25.58408748429838
363, 16.90052766552435
364, 4.023931490521136
365, 1.0048999404671122
366, 4.080005752228772
367, 3.6622185699948204
368, 0.7746900823181022
369, 4.81954414799884
370, 16.958029215712486
371, 23.849175419241874
372, 21.163364066837403
373, 18.956798222917314
374, 24.160680248324297
375, 30.01085270677504
376, 26.56033650391737
377, 15.869654815036029
378, 4.22807790893421
379, -6.301440823223402
380, -9.311866028977875
381, -4.503689978854254
382, -1.6543558447692703
383, -3.9691397896885974
384, -6.693908935869331
385, -6.72571043717835
386, -6.028132564706539
387, -7.3007885199363045
388, -7.951749848020427
389, -0.49169766309705665
390, 12.795061588169574
391, 12.85404020990245
392, -1.8042296802846067
393, -12.495287582670699
394, -14.482305967892444
395, -11.796463453838896
396, -6.453392723821253
397, -2.180273665157074
398, -3.7068882014236806
399, -8.997407580869549
400, -13.434429899567021
401, -16.570456179843404
402, -15.672009072920446
403, -10.482420462455593
404, -2.4234971903078986
405, 8.521668883505754
406, 14.045860738639476
407, 8.849237480081229
408, 6.3453627655771925
409, 17.68824155865059
410, 37.61346543289119
411, 56.691690823116915
412, 72.23103548144127
413, 88.51346770292594
414, 105.86504359684386
415, 124.20691914010968
416, 143.02286795639566
417, 154.61070057893812
418, 156.47975690597013
419, 157.9763904758329
420, 164.91174501245496
421, 172.23938032381693
422, 173.89246997492364
423, 172.32959224506976
424, 173.04010018779036
425, 171.96345541185838
426, 151.9035162005266
427, 113.88304249031671
428, 80.42348129826223
429, 56.03143771343002
430, 39.427196128735886
431, 26.2807262602405
432, 18.642750381705355
433, 18.113363878097516
434, 19.443515160442075
435, 13.917384808125917
436, 5.231437648848441
437, 2.7676405604402134
438, 4.315538097676836
439, 0.15072585101734148
440, -9.837339519119269
441, -15.204961816430568
442, -14.188802291231696
443, -10.77573601203494
444, -6.1971007178758555
445, 1.5793297185109623
446, 14.399344268897948
447, 24.226602432028358
448, 21.235237608590978
449, 10.659958089231623
450, 5.065610234400538
451, 5.277843855129049
452, 15.008380872172893
453, 33.477683675435856
454, 44.77001651724231
455, 46.30870617459004
456, 40.27864288302044
457, 27.63504417675813
458, 20.206953343840723
459, 26.653551637994497
460, 36.45266615568016
461, 41.239739247767375
462, 39.57965654848158
463, 28.995975436416302
464, 10.955453264224161
465, -9.08436449282226
466, -28.613135541358588
467, -28.731091822600774
468, -9.898337979153894
469, 0.030454684180313052
470, -4.436243386210663
471, -9.445455209493502
472, -9.790475620883171
473, -8.6377456703176
474, -7.949477749655671
475, -2.536055333958302
476, 14.020780770806596
477, 31.247986140320336
478, 28.553148218418755
479, 11.816670045670435
480, 0.9505700015952243
481, -3.6011717006558683
482, -7.895121374154769
483, -12.45954480056298
484, -11.191720607421303
485, -2.5262266642803297
486, 10.891269304644538
487, 28.959197757435504
488, 46.44260175352338
489, 60.706287600548876
490, 64.77735938031765
491, 51.26640352909317
492, 28.601334292640786
493, 11.409044230079417
494, 3.038145264738432
495, 7.9794517298164465
496, 22.178150223485773
497, 23.679820890992687
498, 11.654078292638587
499, -1.9574520559121993
500, -14.499524768156334
501, -20.901429642131006
502, -19.88218140489016
503, -14.777686773100413
504, -6.8010227714698885
505, -0.6389842345965917
506, 0.05863464618050784
507, 4.101564966648766
508, 22.938481176339792
509, 51.237309890106644
510, 72.42684989454528
511, 86.41445799990652
512, 94.06206108592323
513, 96.35402896071537
514, 97.5888476527557
515, 98.97952477963554
516, 105.59276229853913
517, 117.55224214551936
518, 122.30224316647173
519, 116.15746068097269
520, 108.37642801767151
521, 103.32681160703805
522, 95.20923050681722
523, 79.85907129492716
524, 61.66100249541205
525, 45.534158960818786
526, 36.51368167596047
527, 34.51357699240725
528, 38.93345304571994
529, 45.27692392403287
530, 51.6664925980499
531, 51.29323156960345
532, 44.374773965094846
533, 35.772677977447984
534, 27.165137388698895
535, 29.56595181314742
536, 41.06856814442517
537, 42.60789756919257
538, 27.891726938490137
539, 11.700968770619056
540, 2.704963199764734
541, 0.42255074855484054
542, 4.934569040286533
543, 15.46811487028026
544, 31.71901356828448
545, 46.20215119777458
546, 49.26865029673354
547, 44.524341855098555
548, 40.64282010885745
549, 37.49184228074455
550, 33.48273620222517
551, 28.346808579822664
552, 21.403293265653247
553, 12.823214134773934
554, 5.7002932540808615
555, 0.2852235604887028
556, 2.8199765417907656
557, 14.695781487273052
558, 21.076869484063536
559, 16.500481197042063
560, 8.726340801433253
561, 1.9271114433918228
562, -3.5597286504021213
563, -8.17456218797588
564, -10.523138534796999
565, -8.838654249628235
566, -5.6635432952375595
567, -4.800314420430368
568, -3.8049184583960596
569, 2.4290649680260685
570, 12.636006708670266
571, 20.7734970274455
572, 24.29547954483951
573, 14.731415917409322
574, -4.50150232584474
575, -11.096640627285069
576, -3.7056880383452153
577, 8.118145890708092
578, 22.214537383964398
579, 24.020010386738704
580, 10.29653329091434
581, -6.7324581644365935
582, -22.720244176075084
583, -24.82517066292894
584, -6.199746383283127
585, 16.06363585837562
586, 29.94334767414921
587, 32.73752693827191
588, 22.021401812740805
589, 9.311197169030038
590, 9.609478217161723
591, 15.489727180848604
592, 13.849833438297082
593, 7.082252237025841
594, 1.3068395502768908
595, -2.22171887250488
596, 0.6765816328902474
597, 10.3271304366408
598, 26.905151125301927
599, 44.19501794510961
600, 38.635699102373565
601, 11.647766073749153
602, -9.072773606163537
603, -20.65342132426258
604, -20.452109412105074
605, -8.501508786178874
606, 6.049196453992408
607, 21.13368147693336
608, 26.289095502502278
609, 18.489450201418094
610, 12.590810957653957
611, 15.158707429672631
612, 16.548881790015912
613, 11.29211345546355
614, 3.2207301434636975
615, -4.593585354418792
616, -9.892421390695745
617, -10.439769123508995
618, -7.619348353467103
619, -2.6936794292009836
620, 1.5614736337383874
621, 0.8071516278791933
622, -1.2657383160321842
623, 1.9965148799992676
624, 11.896152002475446
625, 31.268054239807498
626, 51.15002305966709
627, 50.48391962249161
628, 33.796009406491976
629, 19.6439813477009
630, 9.387540385405373
631, 3.6582408001308977
632, 1.5830498619275204
633, 1.655256103913871
634, 2.777649761991597
635, -0.4828676142005861
636, -7.053562784346013
637, -0.5194123674441471
638, 20.571045675350888
639, 31.640623913225227
640, 27.75017705539676
641, 21.56318656923895
642, 16.51772749259362
643, 8.820919041969319
644, -1.4276382103594187
645, -4.130149869901743
646, 4.425493594114869
647, 9.547535179343413
648, 3.753070863427183
649, 1.645139452555668
650, 10.769015346403194
651, 25.800121871565807
652, 41.5946528440104
653, 44.68221525723766
654, 25.03119280695273
655, 2.4338870456285804
656, -5.63130920095
657, -6.524992984724577
658, -7.013171790827073
659, -2.528171603803912
660, 12.849339443394001
661, 25.28842308708181
662, 15.584345373533324
663, -0.8414454508115341
664, 0.05578104654159688
665, 7.88917764294365
666, 3.7430569202347215
667, -5.197147410230627
668, -5.654595148619592
669, 1.2672145428996373
670, 13.07286282683799
671, 26.020766598813225
672, 31.479147807482605
673, 28.271830820677224
674, 14.2736422111293
675, -4.745329286055494
676, -11.41483405549343
677, -5.45407174909451
678, 12.827550433743454
679, 37.437130808708844
680, 38.62405579518054
681, 20.221818856993195
682, 8.3001985003134
683, 5.803531741150891
684, 9.703115764117229
685, 19.094149578334054
686, 28.357747629975165
687, 34.19505089934
688, 22.52466077154395
689, -3.4923806869519467
690, -14.64677184433458
691, -9.791608530083067
692, -3.2256265073287977
693, 2.9378271094169577
694, 7.7083690795370785
695, 12.144479888085243
696, 22.985196179219656
697, 38.63793019504374
698, 46.620139338884655
699, 44.35961720903515
700, 32.25783110678276
701, 11.636659947568205
702, -5.486652647721257
703, -17.022890181970524
704, -12.316491382072854
705, 9.096132158127148
706, 20.526027173602415
707, 15.22393015123771
708, 9.326872004710367
709, 8.018397186858238
710, 10.708506061679145
711, 17.34572934077778
712, 24.637402831730924
713, 31.65331702102185
714, 34.81746742486894
715, 33.50250065829687
716, 32.756251087721466
717, 33.56165028875739
718, 29.44057571554231
719, 18.771648238157468
720, 5.829168981145813
721, -6.46348756323323
722, -5.8665405689316685
723, 10.566659380203419
724, 27.8899902998387
725, 39.58920395623272
726, 41.44467095714708
727, 32.65826551606551
728, 19.87329692639787
729, 5.500146252318245
730, -5.261572454241104
731, -11.798219026252355
732, -11.37827424108491
733, -3.9168841994915056
734, -0.8135392499143563
735, -4.1966116202124795
736, -0.24936276410380742
737, 13.61854857413482
738, 15.000684999995428
739, -0.17201086230852525
740, -6.09033314717135
741, 1.7701356083775863
742, 2.5577746270259922
743, -7.0635873689457185
744, -3.9901483845978873
745, 15.810365863956577
746, 28.93593771141741
747, 30.806386020426544
748, 33.33349652823199
749, 37.73659453745995
750, 30.522129064971068
751, 10.780519501801336
752, -3.652972149859579
753, -10.56902868562156
754, -10.088554124101847
755, -2.8294106735679634
756, 6.623782527431558
757, 17.119657196291882
758, 21.073319848876963
759, 17.33086952132453
760, 6.222235391338927
761, -7.8906553963906845
762, -6.638839783955973
763, 8.610525279294507
764, 17.528671996423782
765, 17.847013715327193
766, 16.571282446001078
767, 13.198308316909333
768, 3.4200062131162667
769, -7.2353057318473475
770, 7.089405969966265
771, 41.389276891763984
772, 63.822628548739885
773, 73.06336017615331
774, 73.15933455301865
775, 66.02544396515123
776, 56.255499785351276
777, 46.46344665463948
778, 42.615425988069546
779, 40.75120865555755
780, 31.08686251371273
781, 16.41407700519767
782, 4.917751862679779
783, -3.76550267293851
784, -9.424872503894221
785, -8.255643324077937
786, 6.930009551922922
787, 27.378253879700424
788, 37.54680959327334
789, 40.266624346068056
790, 39.21957869131984
791, 31.52777773352227
792, 14.07196473542399
793, -1.149570613224114
794, -5.868848260193772
795, -4.414150352252818
796, 0.2944363192441415
797, 7.9551168789130315
798, 18.770014679702854
799, 31.602305087048535
800, 43.28217232681209
801, 54.1110088650712
802, 63.89913923235599
803, 64.16510633871621
804, 52.12475957532433
805, 43.519731029696686
806, 43.553223399192575
807, 44.05937315371875
808, 42.398112256335935
809, 37.76276345723545
810, 29.741223470848126
811, 16.70487779867426
812, 1.3542649545347558
813, -8.688606403941321
814, -11.862675586691694
815, -3.6847943647130705
816, 13.473436342856075
817, 24.21565194309551
818, 28.353601357577645
819, 37.31951670246417
820, 45.02808019426175
821, 30.294299947310265
822, 2.8336383083114924
823, -9.775106882227192
824, -11.31424319952157
825, -9.536453794055433
826, -1.031234304253303
827, 20.72638038654941
828, 38.074186979300976
829, 27.325960088917327
830, 5.569731156620946
831, -8.516130231515945
832, -10.431811336360624
833, 4.3639987507394835
834, 23.697184032901532
835, 38.04922549137973
836, 42.01556841053571
837, 33.204982366933564
838, 21.67180418639009
839, 11.796991149377845
840, 7.394387652073874
841, 7.9156995345501855
842, 3.321411273054764
843, -7.536202077596954
844, -11.158517800574828
845, -5.010429237456265
846, 11.113778106347127
847, 34.03406443458289
848, 42.483546625627696
849, 37.99028874888927
850, 33.10059526372697
851, 29.681504640296225
852, 29.98704690364275
853, 30.963845082321768
854, 26.33943203759827
855, 17.1859220800402
856, 5.392565003734944
857, -3.286895462890243
858, -3.7843453293157836
859, -2.854202735767103
860, -5.967518561081761
861, -5.445310506892383
862, 3.574148791085463
863, 14.331720656179186
864, 22.777537424656202
865, 28.433853764525793
866, 30.532374241528487
867, 22.662507719539917
868, 6.210839931848113
869, 4.591983435167549
870, 17.63334921019805
871, 21.275927374564617
872, 14.118768682131758
873, 3.529555298275227
874, -6.458753888295178
875, -8.585766392005098
876, -3.2629633548472157
877, 8.640157473164436
878, 18.845983153364614
879, 14.472656879489477
880, 5.16246352613598
881, 1.922109547711898
882, 4.109164113845054
883, 11.483279327610035
884, 13.748518173951197
885, 5.820516510717425
886, -6.150706615051149
887, -19.699853843432265
888, -19.329678682479425
889, -2.36206224152329
890, 17.442781042990646
891, 34.22986860441415
892, 33.22682310314167
893, 18.597048648719465
894, 11.461742467570275
895, 15.041456715211098
896, 30.430870311518902
897, 45.07499409727143
898, 39.856821905138986
899, 21.946124208632227
900, 0.33809325513675503
901, -11.793633440276608
902, -5.410831316588883
903, 8.222860125735224
904, 23.136262783868915
905, 23.55999922268211
906, 6.177370983856235
907, -3.0250763347526117
908, -0.14625648024821203
909, 2.756879678450332
910, 5.000333896223765
911, 11.986350776898234
912, 19.496065639786593
913, 15.180421469033718
914, 6.760134794139049
915, 11.607237896582319
916, 15.251482106654748
917, -1.114569339424179
918, -14.342176306024157
919, -6.124436731407968
920, 6.797378934411427
921, 15.892091723588237
922, 24.22535387359585
923, 31.092622674771064
924, 37.11250364634134
925, 43.07088739080018
926, 52.648620553379715
927, 63.88363295290219
928, 67.16605054111278
929, 59.882112253309515
930, 37.82874655191927
931, 15.095434832292995
932, 16.539080593622202
933, 29.623036394260453
934, 39.079684255361826
935, 37.151470782359866
936, 19.4758545173504
937, 2.8031408342694704
938, -5.393832423073945
939, -5.062616855547276
940, 2.550814776862353
941, 8.802824861999397
942, 10.938333706378671
943, 5.584071475389919
944, -1.528884732575989
945, 2.3341048044808304
946, 12.866972793655805
947, 21.560371792610567
948, 24.096817255989208
949, 16.59871523384072
950, 7.373486854110524
951, 2.3733346797589547
952, 7.426909970517954
953, 23.635541700026806
954, 35.11586783655957
955, 38.672446090025915
956, 35.795001713166585
957, 27.566523033476187
958, 16.65120221844154
959, 7.979687586531327
960, 11.305274440790072
961, 14.270329398756076
962, 3.56843927202317
963, -5.131975849467381
964, -2.8246721755122053
965, 1.7331759861322098
966, 5.3689131892297155
967, 8.583838605453366
968, 9.95933505498897
969, 1.1945403547515525
970, -12.175226533425757
971, -10.992402383667923
972, -3.993922047909564
973, -9.895618496373118
974, -17.272462589363386
975, -13.168158892865904
976, -5.8756010988108756
977, -0.08237874007591017
978, 6.69635558655682
979, 14.06661870878952
980, 12.67540740015238
981, 3.5106030795709557
982, 0.7978967764711342
983, 5.839176519693865
984, 18.846839350192568
985, 30.920040287926895
986, 29.177284730067186
987, 21.36003019411737
988, 14.24044456054935
989, 5.997889519524506
990, -2.631218119785899
991, -0.24274045742686212
992, 13.670976750148384
993, 20.185227157468944
994, 18.531184691399176
995, 16.01798222053594
996, 11.989099567604171
997, 4.192093764719175
998, -0.3954288943282336
999, 4.482821135499762
1000, 13.722660159857696
1001, 23.27529720304028
1002, 27.000280662308796
1003, 24.3859751901673
1004, 24.839247066729968
1005, 25.905950368299273
1006, 13.432589942427967
1007, -4.225958010987597
1008, -9.00659634582371
1009, -5.792758608230997
1010, 0.4779362229774051
1011, 3.954176199239555
1012, 2.00454715152091
1013, 3.3878003168242685
1014, 10.323437396998088
1015, 19.107587366084317
1016, 28.462764577323014
1017, 39.95102186473605
1018, 45.348343980773734
1019, 30.00246958463049
1020, 18.132109055453384
1021, 33.43353730195804
1022, 53.94660511988923
1023, 68.86367009929972
1024, 67.99423405169864
1025, 50.91223271263061
1026, 28.70105213484294
1027, 7.021915034417816
1028, -2.611163234864307
1029, -1.546343895307018
1030, 8.952439151442377
1031, 19.703927723992365
1032, 23.01011217877476
1033, 24.29809478475363
1034, 24.6167226110133
1035, 17.289131507853654
1036, 3.9939949686627187
1037, -4.634150173402759
1038, -8.015987048008355
1039, -5.438129493247288
1040, 0.20676792857420878
1041, 6.401200803726624
1042, 7.730062123144762
1043, 2.184876655462176
1044, -5.330954895709965
1045, -10.985037071696297
1046, -0.7311807240857888
1047, 18.13782399840784
1048, 23.959040255399486
1049, 20.557165056642134
1050, 12.95987535452241
1051, 1.0667415387788424
1052, -14.122236553003404
1053, -23.74655861349129
1054, -26.30270352282878
1055, -23.854514026481866
1056, -18.23958042809545
1057, -13.27884807267128
1058, -5.628935194761198
1059, 8.722841103412975
1060, 13.707023074343851
1061, 1.7719765344254483
1062, -6.572078378356309
1063, -7.519110763271783
1064, -6.393564904302821
1065, -1.9076809055823105
1066, 10.72919549317885
1067, 33.1988591787308
1068, 67.80749275460767
1069, 108.7771636943794
1070, 144.75849956884667
1071, 179.55230544418737
1072, 212.2795354027462
1073, 234.7878793156142
1074, 250.8631772701051
1075, 270.47693380221517
1076, 286.18945045203236
1077, 290.26642469722947
1078, 280.70481496391767
1079, 256.62550684212783
1080, 218.4241062838596
1081, 169.4961328425088
1082, 121.7195547425199
1083, 78.95460378182452
1084, 53.903223824539964
1085, 38.55017236978574
1086, 26.889673049358862
1087, 15.347445501539823
1088, 3.2650994329333116
1089, -2.309059101353796
1090, -4.0274108260932735
1091, -11.508298665119582
1092, -21.10643845275945
1093, -27.4575609594699
1094, -27.80011512512965
1095, -20.8098174212887
1096, -11.225443565374462
1097, -2.1208315774251787
1098, -3.2391589911126175
1099, -10.612285288842031
1100, -15.114223963504173
1101, -11.35960111593704
1102, 4.890296498452244
1103, 21.625667902418627
1104, 31.98862739798369
1105, 28.454014827283572
1106, 14.416859362097512
1107, 1.9219145927172576
1108, -5.309783254835111
1109, -4.684114509311712
1110, 1.5167362571037302
1111, 11.432795416164026
1112, 14.02148655159317
1113, 8.197499171382788
1114, -1.452195497008688
1115, -8.420333721594943
1116, -4.024380314982864
1117, 0.7007229668361106
1118, -0.5690205625292037
1119, -2.050749810655816
1120, -2.429583672077115
1121, -2.5803797532007593
1122, 0.9059797518480082
1123, 14.751915412841754
1124, 19.37026966264557
1125, 1.8855955834510496
1126, -8.11174128515654
1127, -4.360574694670049
1128, 1.567422429661974
1129, 8.885180658837726
1130, 17.85992434223067
1131, 16.374991133470303
1132, -4.269049851171303
1133, -14.716506286146796
1134, -8.06556957925659
1135, 0.793831306004904
1136, 11.916846575821637
1137, 29.695323242172435
1138, 43.513749154413745
1139, 45.2500438291454
1140, 45.74428996535062
1141, 47.27485361284835
1142, 39.77704151442231
1143, 29.554889596732664
1144, 37.26148645577359
1145, 47.01334853009075
1146, 46.743218210725445
1147, 41.007761200727145
1148, 31.8876619041057
1149, 21.43050810776208
1150, 11.143757675488587
1151, 4.736245093962452
1152, -1.0806254583319514
1153, -8.72791159209055
1154, -11.69159564521351
1155, -6.901788304441197
1156, 10.255546495436647
1157, 28.21027906680638
1158, 22.38766114462487
1159, 9.971923779620056
1160, 3.9220267088328455
1161, 2.6862916255345226
1162, 4.669601014382124
1163, 6.471158355582702
1164, 6.282157978611849
1165, 2.623171534968151
1166, 1.5466863478195592
1167, 5.8607939009120855
1168, 9.65420281069737
1169, 10.208620541188793
1170, 3.24775509814981
1171, -5.1280134491717035
1172, -8.045266471298646
1173, -9.09306394033365
1174, -9.129657460804083
1175, -2.6282686793983885
1176, 8.637287097618582
1177, 17.28550189689554
1178, 22.579267451094438
1179, 25.207538149173615
1180, 28.539013226748693
1181, 32.2427487368484
1182, 29.27526202099807
1183, 19.741495028701365
1184, 5.525505364503715
1185, -2.097508768919397
1186, 1.465860377892568
1187, 2.8461891877459493
1188, 0.896336811584888
1189, 1.9248752874455022
1190, 2.568497777348057
1191, -1.4781790919212199
1192, -3.9635712262877405
1193, -3.9571623584761255
1194, -10.610989819051383
1195, -16.470332791693863
1196, -2.8168555339223076
1197, 22.288874192817048
1198, 49.70503512691516
1199, 55.58608043261734
1200, 40.081872382155325
1201, 24.831139676295834
1202, 12.856321392330074
1203, 7.394218591294475
1204, 16.665852045311112
1205, 40.647100581096765
1206, 52.25637757326376
1207, 52.3669566699964
1208, 49.986247520280585
1209, 37.30727236280222
1210, 11.420311489784808
1211, -4.2834060269403835
1212, -6.508888240496162
1213, 3.050205533220378
1214, 15.95536390921643
1215, 22.056321577268136
1216, 17.60700573923077
1217, 4.629301881490846
1218, -1.7741106470971317
1219, -3.347622500377838
1220, -4.536045716218496
1221, -3.6672108052193835
1222, -0.46609525413623487
1223, 0.509068325977978
1224, 0.8923456880779668
1225, 5.871445795207364
1226, 3.0970859429673965
1227, -13.537181827253562
1228, -17.95705830511133
1229, -10.41091317250357
1230, -9.857443045014179
1231, -9.420483189136803
1232, -1.9386227648683416
1233, -0.8259356692294659
1234, -4.973710792299926
1235, 7.509063317388382
1236, 21.086615987950836
1237, 12.458996724705003
1238, 5.951590445543843
1239, 9.89872533705875
1240, 10.788755302549816
1241, 15.242649759552478
1242, 37.316173794441966
1243, 48.362092609274896
1244, 38.511626032447566
1245, 37.80559205703639
1246, 42.83189003771213
1247, 35.90799513702132
1248, 31.182742618241264
1249, 35.32726254908766
1250, 26.461133782914203
1251, 8.999202389214588
1252, 5.729045485078586
1253, 12.695031176634984
1254, 25.796048614229676
1255, 31.131216034964382
1256, 29.23537829429779
1257, 30.15879356099549
1258, 28.78623058031144
1259, 22.345588627337747
1260, 36.55817380286044
1261, 61.44098336832349
1262, 53.919791447132866
1263, 38.616997841467764
1264, 39.78399491988284
1265, 34.67266741646063
1266, 22.15565562850179
1267, 22.77527446753561
1268, 31.65097265961299
1269, 39.669003800999235
1270, 40.6594280368688
1271, 34.1609351021018
1272, 25.05800550186109
1273, 12.339013175142327
1274, -2.9591865066765877
1275, -5.444137110431029
1276, 1.8979942717792255
1277, -7.056375683738452
1278, -15.864910865537922
1279, -6.756746239451331
1280, 6.116128721413588
1281, 17.21363629316147
1282, 18.928852297605317
1283, 13.765050876114628
1284, 5.74808531009262
1285, 8.602583823495934
1286, 22.353953418378524
1287, 33.81987936914811
1288, 31.858110700973157
1289, 10.091396963068519
1290, -1.698842724168344
1291, 1.8126964172497537
1292, 17.75659986533765
1293, 33.618733129837665
1294, 38.89509839629295
1295, 24.982749492222638
1296, 0.6084920537139169
1297, -8.562883043118063
1298, -12.032661060050032
1299, -14.494621949435441
1300, -0.2715766011649521
1301, 23.209151475000226
1302, 31.719308494741654
1303, 33.8550175981577
1304, 32.753448817996286
1305, 16.139906825130083
1306, -4.569143364018373
1307, -7.894750518867113
1308, -5.293377186652151
1309, -0.6410083368605228
1310, 11.646244879405913
1311, 21.444172398703813
1312, 15.275295785997287
1313, 5.739701781921212
1314, -2.2113913685575426
1315, -10.087354397694526
1316, -12.093833935821067
1317, -3.163638348383529
1318, 3.8813257913006964
1319, 11.37704928750486
1320, 34.171965031127684
1321, 49.71026352811168
1322, 44.500739814692
1323, 34.93666016933025
1324, 26.64410944178121
1325, 24.10715377799238
1326, 24.49116436325903
1327, 23.068649820604833
1328, 4.061465066785331
1329, -15.164771197450136
1330, -11.866917713838575
1331, -3.9202663899100116
1332, 3.7156656420622767
1333, 14.427033958259244
1334, 20.47723233005354
1335, 15.839094496368716
1336, 6.523387877205323
1337, -2.4764960055415486
1338, -5.606737517347483
1339, -3.1209700692950264
1340, 4.839052186935078
1341, 17.511702989959304
1342, 24.186561393230022
1343, 11.567476550530955
1344, -1.8417691217225638
1345, -8.699297590726928
1346, -7.411996158838065
1347, -1.613916204777297
1348, 5.1559445748241615
1349, 7.326077530897919
1350, 5.3677198431003035
1351, 4.8706498958167685
1352, 11.743807993689188
1353, 28.513454623514235
1354, 48.83616581135175
1355, 55.041994920701654
1356, 29.32783545498205
1357, 3.387418044872902
1358, -11.699751566909072
1359, -14.26290223428009
1360, -3.9583035215530344
1361, 17.18493511525662
1362, 29.83117343280901
1363, 32.94943627042517
1364, 30.08259191641423
1365, 25.916562094348137
1366, 20.756002041969168
1367, 10.305505189163569
1368, 2.227311916951521
1369, 1.2797976698514049
1370, 9.24457284978439
1371, 19.367538273547552
1372, 18.02002178990574
1373, 16.228870100032054
1374, 15.498475794004435
1375, 5.741574272611615
1376, 0.4184631018304117
1377, 8.12474995803018
1378, 14.567309309530174
1379, 17.66416578152689
1380, 20.530959645042003
1381, 25.367580202873114
1382, 27.69477292064039
1383, 9.63897496053346
1384, -1.1461567431820185
1385, 12.247633027581287
1386, 21.318593764977322
1387, 27.70197962180987
1388, 43.32357564737731
1389, 33.990455374890644
1390, 0.7119209382574354
1391, -14.418372549262813
1392, -15.65733967330425
1393, -7.501180387786235
1394, 8.414388594737375
1395, 28.20397673554453
1396, 42.969004280101444
1397, 38.52560085101027
1398, 18.381527456095
1399, 2.68501434454879
1400, -6.098205845586335
1401, -6.5268463920015165
1402, 8.873352852096104
1403, 29.5644170833707
1404, 41.09074721236175
1405, 45.72490169030448
1406, 41.70067269387164
1407, 25.199048865812983
1408, 11.319407499654062
1409, 6.05032259484733
1410, 3.5475955776717
1411, 2.8912514838232255
1412, 3.4597064386707643
1413, 3.0798501312817734
1414, 6.1885848472984435
1415, 18.374816131913576
1416, 25.59403424119705
1417, 24.35458398535434
1418, 15.75919578306366
1419, 5.985924165568576
1420, 0.9691310159637396
1421, 8.98186868735479
1422, 23.375704210299318
1423, 34.14427750693608
1424, 25.55806065132083
1425, 7.296207000236109
1426, -3.2229998801474267
1427, -10.275188578420966
1428, -11.915102990687274
1429, -1.12072621493121
1430, 2.1224191074832106
1431, -3.51182207197985
1432, 9.33994670965967
1433, 23.259601909520597
1434, 24.832208917925527
1435, 29.001167008352013
1436, 31.104708887588686
1437, 24.29169338163433
1438, 20.054576806961677
1439, 16.207443900091448
1440, 4.381212072943754
1441, -3.5686956714453117
1442, -4.073698606596281
1443, 2.8037739745761883
1444, 7.959713405132561
1445, 5.968555047986456
1446, -2.242806820874648
1447, -10.17069035456393
1448, -12.673739258783598
1449, -6.816055025307833
1450, 3.0389218563816485
1451, 12.184963718499375
1452, 31.69210405991612
1453, 52.977346214601084
1454, 58.48671352644601
1455, 49.10635262532719
1456, 26.526293986671362
1457, -5.110754231861847
1458, -11.513068829223357
1459, 11.035613989976127
1460, 21.049729544606407
1461, 28.72562171079676
1462, 39.119241234196124
1463, 27.54967450459776
1464, 8.334011012156225
1465, -2.4826355457551017
1466, -15.292510659878872
1467, -18.23846641334262
1468, 4.707760402676286
1469, 25.097851296413864
1470, 30.552461767609884
1471, 15.876214529117988
1472, 9.848223500546055
1473, 17.885021663491443
1474, 26.989808668953174
1475, 31.35036743192404
1476, 25.796666020433122
1477, 2.6757300911172024
1478, -7.468749451265239
1479, 2.8782154025263935
1480, 4.407043535828052
1481, 7.344490749918123
1482, 17.51443435544911
1483, 18.65762958414234
1484, 20.35916599974621
1485, 29.025227832269593
1486, 23.709133928283336
1487, 15.23372911315846
1488, 16.953927187843647
1489, 13.334888184996771
1490, 9.237548644768367
1491, 14.361285491826493
1492, 10.30844298735633
1493, 3.751459303409547
1494, 10.646726380404516
1495, 8.51602160962193
1496, -1.8825055238974073
1497, -7.125497484006246
1498, -5.917479444268338
1499, -1.045635822968734
1500, 0.6861322358759026
1501, 0.8962274418609013
1502, 2.2333001371246155
1503, 9.272872748450254
1504, 11.837875434163834
1505, 7.641746992608887
1506, 2.4695260814116864
1507, -7.524036324285817
1508, -18.049048924200633
1509, -7.976642515713138
1510, 3.080653891612883
1511, 8.082936052255263
1512, 19.74975137377919
1513, 31.551783586931606
1514, 39.17213252621491
1515, 40.98181367733423
1516, 30.839187231525102
1517, 10.500142627454352
1518, 1.9059652067492152
1519, 0.6170235954641612
1520, 2.6638767944452866
1521, 7.514528876507029
1522, -1.3405313452701648
1523, -22.39228161388951
1524, -5.367136580133092
1525, 17.258895517667952
1526, 20.235797460212325
1527, 13.06604527517402
1528, 3.4226735007130173
1529, -3.476547289086284
1530, -7.517281704533843
1531, -4.6659516735774105
1532, 4.755755935641901
1533, 6.2489097348984615
1534, 12.8344141858679
1535, 25.898999154418107
1536, 12.11263016350108
1537, -1.7063552214531228
1538, 2.4356666581174977
1539, 15.35188656057926
1540, 29.51331225068361
1541, 37.24698162626805
1542, 25.24164690226553
1543, 7.900916574881649
1544, -4.071417118168256
1545, -10.600126462351454
1546, -11.361600817943554
1547, -6.57080426251423
1548, 1.9737671425125427
1549, 5.773472055227558
1550, 3.0573611159952634
1551, 3.5790938266293324
1552, 6.168843617933135
1553, 10.320535005350166
1554, 17.364391430604655
1555, 13.337318264737632
1556, 0.46182688787530424
1557, -2.0856399027688894
1558, 2.8073575967880515
1559, 10.708667474289086
1560, 13.23281789485327
1561, 2.3827088131843084
1562, -17.03833643070402
1563, -33.04841193759057
1564, -33.26469187443422
1565, -21.62462279532997
1566, -8.835621887251591
1567, 5.077358012266586
1568, 14.896205533942975
1569, 17.162475310983154
1570, 36.81376639759333
1571, 67.210466932582
1572, 99.35501038874622
1573, 135.49665116489837
1574, 164.5886626955362
1575, 181.54212860715757
1576, 208.32739662555946
1577, 239.8271312781369
1578, 267.9487136564046
1579, 281.8917758142377
1580, 277.33483254588805
1581, 257.7310431806836
1582, 237.20193316161976
1583, 214.07085527333447
1584, 189.0445215962734
1585, 165.9688871397916
1586, 147.5396667161633
1587, 132.16934043494325
1588, 114.8861094976321
1589, 86.21033930084832
1590, 50.43880197891849
1591, 22.205029860397417
1592, 8.681558210073945
1593, -1.5694949662347426
1594, -17.300949219941913
1595, -28.05612231328496
1596, -24.379929514893774
1597, -6.994930311610233
1598, 3.5682119876091747
1599, 6.651772361006806
1600, 2.701526737775339
1601, -4.924465682953269
1602, 0.6904743189184046
1603, 12.400107759696084
1604, 9.037968303209254
1605, 3.5427019164189915
1606, 1.1534822142675694
1607, 3.3495923911145837
1608, 8.398256506543476
1609, 9.37188898685099
1610, 4.114539975682419
1611, 2.9740772392790404
1612, 8.22505741414193
1613, 16.004511495688575
1614, 15.905800335665162
1615, 16.13963277325388
1616, 13.472882903113941
1617, -1.028191790863275
1618, -12.286569140367646
1619, -15.813688850520748
1620, -9.050823211158104
1621, 11.682603621554335
1622, 20.670748867290058
1623, 9.233517177409567
1624, 10.424291345249685
1625, 24.045903964852187
1626, 39.47913437047555
1627, 39.344533046452625
1628, 24.122361155539238
1629, 6.291601124896033
1630, 0.5531146292360063
1631, -4.806708637003794
1632, -7.645363741974961
1633, -1.5056634435964042
1634, 24.643250904842034
1635, 37.73094843984882
1636, 28.13100785077927
1637, 11.026554163229775
1638, 2.9868696726559847
1639, 8.521528806146534
1640, 24.30412261061042
1641, 18.995178575303726
1642, 13.80923837275759
1643, 24.72677015958493
1644, 35.40630023688914
1645, 32.133984892018134
1646, 16.21384339298197
1647, 0.7566930799584952
1648, -10.005914482675053
1649, -13.145647367141464
1650, -11.580065036373298
##END=



