##NAMES=
##LOCALITY=
##RRUFFID=
##CHEMISTRY=
320, 2.9584268985086055
321, -1.5703384398043454
322, -6.778897808533202
323, -8.388281317322253
324, -7.646044583983894
325, -6.3846634186083975
326, -4.601363430690526
327, -2.457287720448676
328, -0.10937056981720161
329, -0.5962556871577362
330, -4.640202484281872
331, -5.487913877169831
332, 0.7034829680851544
333, 8.50644829026669
334, 10.197425027855843
335, 8.003640758950041
336, 8.9339801347719
337, 13.287810141656337
338, 20.554799624291263
339, 28.96180351410203
340, 33.14415662019428
341, 31.07167996882299
342, 29.6064097936669
343, 34.39457481192767
344, 41.81694683593196
345, 45.172263735041724
346, 45.32981040301547
347, 46.27185270883365
348, 47.49261658294927
349, 40.48235977621562
350, 23.46095717229491
351, 8.524556391634178
352, 2.7590761156247936
353, 2.4319817836399125
354, 3.937840176370173
355, 5.443501454433317
356, 2.3492310867668493
357, -3.905783018618422
358, -4.064329784052916
359, 2.7376816814976337
360, 10.793974024677027
361, 17.84432029714526
362, 21.941907350564634
363, 21.863573743859433
364, 16.82671573307516
365, 5.7599584564623
366, -5.538761669510677
367, -3.5979067549906176
368, 9.291560193248642
369, 13.824767152460936
370, 7.503045707669116
371, 1.3643071047904414
372, -0.6700214949073597
373, 0.8020610178568859
374, 5.6561115515878555
375, 14.739359046327536
376, 28.017422110809548
377, 40.710431371668165
378, 38.81573509724603
379, 23.68478316801793
380, 8.947275513135992
381, -1.904286206586221
382, -5.094980728325027
383, 0.6524383653777477
384, 7.301524597725347
385, 8.955755424115978
386, 7.182681803096784
387, 4.196807017404808
388, 0.2953094606164086
389, -3.716493958895171
390, -7.315210946387197
391, -6.014854347963592
392, 0.15811561670670926
393, -0.03905603146222347
394, -10.125815032019545
395, -19.055390418295246
396, -20.53370138490618
397, -17.695056257230135
398, -13.866204862228187
399, -10.069756018378484
400, -9.198524536375771
401, -11.199851790633602
402, -15.824312729376288
403, -22.305570560263277
404, -19.92828126250015
405, -6.038447399977031
406, 7.049651534412533
407, 14.156357470134026
408, 22.870420481512156
409, 40.32525065890468
410, 66.36076875029721
411, 100.1747877596531
412, 134.20953697966843
413, 165.65011857952095
414, 193.05827253942743
415, 208.6070161097391
416, 212.0978696526572
417, 221.91937586317
418, 244.1915029564666
419, 269.57736004360004
420, 292.27168685191646
421, 309.1997774477527
422, 316.66522277276454
423, 315.4418517449076
424, 307.2656492081178
425, 293.61136357710757
426, 280.17401052991863
427, 267.17083538786255
428, 251.55717789352911
429, 232.75155745793336
430, 212.2421982127944
431, 190.6341631784294
432, 170.89336343333935
433, 155.10385989822635
434, 134.88928180153107
435, 99.1173111134317
436, 55.393264260909746
437, 27.45706525136029
438, 12.290826985011336
439, 4.157579613727194
440, 1.3061192984278023
441, -0.3117731455085959
442, -1.7083895233527073
443, -3.5209555255933083
444, -6.077085110958251
445, -4.388754229983078
446, 5.270727920774334
447, 21.043534732785247
448, 40.9823403012374
449, 59.57063705916016
450, 69.3808800503707
451, 71.11178782547495
452, 68.37295239807781
453, 62.38856310439587
454, 59.17052055224258
455, 59.51792506998481
456, 58.4733243832311
457, 54.42313213038733
458, 48.80728616232909
459, 42.43371973445937
460, 32.18217663122368
461, 14.982269879200885
462, 0.6234085149362727
463, 1.9736952076432317
464, 12.453144428426185
465, 11.745560490220214
466, 1.578468491366948
467, -3.1604498198003057
468, -2.248691652267553
469, -7.3435053730095206
470, -20.993379270569676
471, -27.858099659457366
472, -22.016486379154685
473, -12.373774716255866
474, -4.2590766469675145
475, 4.474933644158227
476, 16.23247843873014
477, 23.61913850035762
478, 13.304399849504989
479, -8.086013895841461
480, -19.687567160148774
481, -20.1643837556976
482, -4.666880305181621
483, 26.387994247954794
484, 48.465977869023845
485, 55.718743172519225
486, 53.96866736696802
487, 45.577239285214546
488, 34.801021670089085
489, 24.346229745965957
490, 17.43138433932654
491, 19.211122171416264
492, 22.927191997374393
493, 19.87733030167601
494, 11.719613182393005
495, 3.4220643749354167
496, -3.688850268094029
497, -7.273842875464652
498, -7.816312536707301
499, -8.874279304801803
500, -11.211037067370398
501, -14.437673581414401
502, -18.51973797007804
503, -18.278468419165165
504, -10.943453985361884
505, -2.4376185875048577
506, 2.91294570690161
507, 7.621140864404424
508, 14.65649326826906
509, 25.1571689500538
510, 41.01108905610863
511, 63.72318604784141
512, 88.88367443859079
513, 114.65107902088857
514, 132.57558470933236
515, 141.96573400462694
516, 145.62473724745496
517, 144.5382942843944
518, 144.27409096562178
519, 146.476458711767
520, 147.35796195127432
521, 145.14078016416306
522, 143.5440720512338
523, 145.23861547626484
524, 144.68807163601468
525, 135.68125329632358
526, 119.14220994756897
527, 96.65683043694207
528, 71.05052203554987
529, 49.38521143741855
530, 36.96485226830555
531, 32.623570466440015
532, 35.12850910078578
533, 36.675254573726306
534, 36.012536670129066
535, 28.251423793099093
536, 12.995417939746858
537, 4.099964067653218
538, 4.86927713324485
539, 7.521788922093947
540, 8.343436444771214
541, 8.509048782485024
542, 8.842359411315101
543, 11.51042599433822
544, 19.145116536731166
545, 32.11356442592569
546, 47.85458265047646
547, 61.48679148643441
548, 61.7122768065592
549, 52.13795258234359
550, 46.12887053851182
551, 44.51108606779508
552, 46.23816178625748
553, 50.5730121464112
554, 53.29315573065787
555, 53.04213215420714
556, 43.8340872965241
557, 24.629030202876038
558, 7.5555330539446
559, -1.987022156409239
560, -7.415158175985198
561, -10.589384484661423
562, -10.454658478202873
563, -5.964255603624224
564, 1.7093113234259363
565, 11.584168952040727
566, 18.763399710395788
567, 16.067537010816523
568, 7.370596867873701
569, 0.908590523822113
570, -1.821957692937758
571, 2.1614353391346413
572, 9.417715158711871
573, 4.1330276328340005
574, -11.160076662562915
575, -15.763201619480242
576, -9.323314320939517
577, -9.52611553450879
578, -18.30246357900478
579, -14.836294981354513
580, 5.769956188824835
581, 15.236799762180453
582, 3.0261000106011124
583, -4.578834533971531
584, 4.525225321860944
585, 14.472827335811417
586, 13.635711753714077
587, 11.50792561899334
588, 16.60985110808724
589, 22.5862827001165
590, 21.672047367386767
591, 14.88703731074611
592, 3.9151726488062195
593, -6.560040117799872
594, -8.56481368985169
595, -4.613879383833591
596, -1.4375156504129336
597, 1.5158299071840702
598, 6.8049378820546735
599, 14.251807668903439
600, 19.004629132303307
601, 20.65559034851458
602, 19.88985205709605
603, 16.613722103711552
604, 9.103597281064594
605, -2.1296845478059367
606, -6.995367075848208
607, -3.7275285078794695
608, -3.6735680691003836
609, -10.61724847459709
610, -13.391218636420945
611, -7.068581658698349
612, -0.7374793429103192
613, 0.7450241919164
614, 4.758668659940668
615, 16.882797760847552
616, 23.804438285110336
617, 13.840831992120457
618, 0.9026983913136064
619, 1.2581198761840824
620, 10.054678157138369
621, 21.01041976842089
622, 30.396698127377476
623, 33.416116960813724
624, 30.745883862162373
625, 24.09534786686754
626, 14.236177409017728
627, 3.076190264896468
628, -6.594576237391266
629, -7.986471594922932
630, -2.7523503640859417
631, 1.242797593582054
632, 3.8231195425796614
633, 6.648469137260236
634, 8.434636413555381
635, 2.716283704899979
636, -8.596536933461266
637, -6.678155212333877
638, 10.758945929992478
639, 27.465286799789737
640, 37.832188618363034
641, 40.12419486966928
642, 33.936088729723
643, 20.820049931556696
644, 2.0867573517930396
645, -5.440828814362703
646, 3.584084729820006
647, 11.515513617023771
648, 9.407366794120207
649, 5.231870256602178
650, 3.8964764169159025
651, 5.009453269936785
652, 8.51445635302207
653, 13.49389585818426
654, 19.62977891954779
655, 20.878326384967295
656, 11.976753936410205
657, 3.1448290384832944
658, 5.110327023059199
659, 11.583491165568375
660, 14.368075354293069
661, 13.144646266787277
662, 7.496366893532468
663, 0.4978391237455071
664, -3.0210822190720137
665, -3.013225146367404
666, 1.1275297979632342
667, 7.301563322345373
668, 10.400814133908625
669, 9.58260032651151
670, 3.2800598265084773
671, -3.2691753995532054
672, 1.5310459102943241
673, 12.45623874742978
674, 12.176592625076864
675, 1.9594106546005605
676, -11.188803942716277
677, -22.341903570473733
678, -13.321619334249135
679, 11.748282190170357
680, 31.201302164916797
681, 40.58290547760862
682, 35.702615695981876
683, 20.040709526198043
684, 10.882703520689574
685, 12.042721156196876
686, 26.917252262514012
687, 49.36997102677924
688, 51.31905796839237
689, 31.862033010616415
690, 8.955605409762484
691, -10.99331623057924
692, -13.49345461619987
693, 0.40661221529899194
694, 8.001768761733274
695, 5.7952452105050725
696, 1.4354105162351516
697, -2.989452545689801
698, 0.7833159313413489
699, 13.15009559224336
700, 19.103590573732617
701, 16.40179680973506
702, 14.522342964969539
703, 15.407970046101582
704, 16.472038517092642
705, 17.46627489331877
706, 22.22200087650208
707, 30.305513513907044
708, 26.935054804723222
709, 10.018589121310924
710, 0.7284317924936659
711, 2.8757972926705406
712, 7.426785006178761
713, 12.452276812294258
714, 21.254256628471012
715, 32.92861247039309
716, 41.688703160171826
717, 45.75903697242711
718, 44.394864246290126
719, 37.33682146674937
720, 24.13863260829703
721, 5.6605836319254195
722, -4.545737266513697
723, -4.20357910888788
724, -2.4913753017799536
725, -1.9730019080730017
726, -1.070925167391124
727, 0.5121994820901818
728, -0.5319341958297628
729, -4.82774196854416
730, -5.710456964512559
731, -1.867995369401342
732, -2.6992962188460297
733, -10.197145029732383
734, -12.10940705342773
735, -5.362167198602492
736, 3.4212661626024783
737, 13.035167451126199
738, 23.686152449444307
739, 34.43527659588153
740, 33.13355389579374
741, 17.941616889620036
742, 5.047973389832805
743, -0.7405391664278795
744, -0.44768778506067974
745, 5.061553235355859
746, 8.929869366267667
747, 9.20901600023808
748, 9.459783049447196
749, 9.915908559949457
750, 5.445406918357094
751, -3.7225460013933116
752, -7.070740021786605
753, -3.649273864972656
754, -0.7131735340603882
755, 1.149157613333955
756, 6.499022153061105
757, 15.506578112430361
758, 20.04296910204539
759, 18.406749091305755
760, 8.306622342668561
761, -6.5348347259923685
762, -10.096850113275195
763, -1.7794812139718488
764, 11.155349333751928
765, 27.7861209360899
766, 41.91792090372246
767, 51.644236776684465
768, 51.63617757132215
769, 44.3133915030744
770, 41.026347850922775
771, 42.297448075919874
772, 46.15311818088867
773, 50.70906134218194
774, 50.592555532910865
775, 46.20393016052731
776, 39.77556119346082
777, 31.61483697880385
778, 22.160553512940623
779, 11.190059852167906
780, -0.7387688422963947
781, -10.509480233415616
782, -10.186361133613445
783, -3.1345966228959696
784, 4.628543536789493
785, 11.453374230643021
786, 13.167233533007675
787, 11.669248580852127
788, 9.75171182063059
789, 8.773097609088381
790, 11.281940802004556
791, 13.621544549882401
792, 12.78143484672455
793, 7.748538958408972
794, -1.5970789611742475
795, -3.421814022889066
796, 12.103830096364163
797, 32.84947379142477
798, 48.158248138361614
799, 51.20370213489832
800, 38.40243574224587
801, 25.13493839632838
802, 19.046400749916756
803, 19.440400844852775
804, 22.842227945839568
805, 21.27807299450069
806, 12.523619376097486
807, 7.487042590182227
808, 8.812076737178359
809, 17.847419348899166
810, 32.14408065543421
811, 36.204117616369786
812, 27.280385686076897
813, 9.86214633971349
814, -10.304930991390393
815, -14.148442307192
816, -3.324078884289065
817, 3.99837599779994
818, 6.61162276019104
819, 5.272159839330925
820, 0.6466108152553716
821, -5.526751003176287
822, -10.090122510810943
823, -4.508292036341118
824, 5.634481591720942
825, 7.572758399857776
826, 5.910294349295782
827, 8.838670560665832
828, 11.247695583056156
829, 6.196643460888936
830, 0.5039793472656129
831, 1.4201969695745902
832, 3.483173001074647
833, 1.9912640731231477
834, -0.2577237083119144
835, -1.7760129758494259
836, -2.3116846478724256
837, -1.7436472947306356
838, -0.8576416985333708
839, 0.4286637698337472
840, 7.36358131327961
841, 21.079758397163914
842, 27.883649811861687
843, 25.038758239832987
844, 17.483772196331756
845, 7.910464312112708
846, 6.507136521150642
847, 11.98754092419631
848, 12.62885665209933
849, 7.891223216971412
850, 0.12483544435372096
851, -7.284473067755243
852, -6.925648919686864
853, -0.20105436849871694
854, 9.906688898759512
855, 17.613470038512332
856, 14.24346727566217
857, 4.607812574643958
858, -5.199956661757824
859, -5.746515848768922
860, 11.410694793110906
861, 23.865923678231866
862, 17.490467067863392
863, 4.862815638111897
864, -7.149347891293928
865, -13.447279801672721
866, -12.213785883670425
867, -1.5183066117797352
868, 17.454099137075445
869, 24.829500035094952
870, 18.56225706237865
871, 8.773214002732402
872, 0.5441168152824503
873, 3.449681505830995
874, 14.982703376013433
875, 24.257046034766972
876, 30.48019267777954
877, 33.29451628990728
878, 32.178704236670455
879, 26.36458535565771
880, 15.97171609003044
881, 1.1896899859912082
882, -6.882197407354397
883, -1.025129881581961
884, 7.943952307075506
885, 14.877131543226369
886, 21.772940331737573
887, 28.72639049430427
888, 24.27331114770095
889, 7.74444238505248
890, -1.3915293132968145
891, -2.1310356186759236
892, -3.4273649953943277
893, -6.034349223435129
894, -8.257278014828444
895, -7.162970678335114
896, 4.6517480445204455
897, 16.40494869632448
898, 6.426887706994421
899, -5.136113366383142
900, 5.617860886809012
901, 16.825402825203128
902, 10.009501231231297
903, 8.36441961603532
904, 24.049225500238663
905, 27.865473893769376
906, 11.447425548060892
907, 1.302828786374448
908, 2.50000069791804
909, 1.6139861295368974
910, -2.132288147527106
911, -1.8234535406941177
912, 0.6924461266830804
913, -2.0773838978047934
914, -5.4087220770002205
915, 1.14879806107092
916, 9.851920177129614
917, 9.098388122983124
918, 4.398283205086955
919, 0.9531812684299439
920, -1.4415915187269093
921, -2.273415683291205
922, 11.169493067008716
923, 41.96677540168912
924, 58.222326925331345
925, 55.095904806556064
926, 50.004949391193804
927, 45.89923025463668
928, 43.22239613561442
929, 39.49984889448706
930, 28.49406540028076
931, 15.186951714180395
932, 9.715364028120803
933, 6.030944408777032
934, -1.9789268064905627
935, -5.644410758026879
936, 0.43809591193303277
937, 7.006627335263602
938, 11.038261585842065
939, 17.450268002335633
940, 26.21595849166306
941, 27.594772356552312
942, 19.967241278506663
943, 3.541162537972923
944, -12.263000040379666
945, -6.925521568366548
946, 7.570262267108319
947, 11.576737466786199
948, 13.959235639492363
949, 23.84018429336402
950, 24.914397530127644
951, 9.31540130327221
952, 8.164452528285892
953, 28.49841080800479
954, 34.59321962399781
955, 22.905425893713073
956, 15.73683988961011
957, 16.835503574706763
958, 22.086756482737655
959, 27.81246192250501
960, 27.403756415413227
961, 20.979742818162777
962, 8.91516092868369
963, -1.4548046386139504
964, -6.5032605526971565
965, 0.8931616172180838
966, 21.185358471323525
967, 21.19672872563615
968, -0.6810346041534103
969, -9.50132336614297
970, -4.677592679537611
971, 3.178272774393463
972, 11.001616391843527
973, 12.711820084950432
974, 5.808494128556049
975, -12.086812603731687
976, -22.73529659802807
977, -15.575276581548223
978, -2.8824107307896156
979, 10.59899833582449
980, 16.10575327960123
981, 12.881202155161645
982, 6.638061666183148
983, 0.16081268055086184
984, -1.0244119148355821
985, -0.41479320263806585
986, -3.6389091217652094
987, -2.4447536863472124
988, 10.232022845210395
989, 16.12938207148636
990, 7.681560726032785
991, 3.860251716750099
992, 8.101318365658699
993, 5.930325224384887
994, 1.5941237695883501
995, 13.701100541304186
996, 28.290566013826265
997, 16.998458132178712
998, 2.5698060542727035
999, 9.118626412439426
1000, 22.530188841752988
1001, 33.27260592872972
1002, 37.64507059930338
1003, 34.18613124017156
1004, 21.197649893694688
1005, 3.002026861811828
1006, -4.223268123048001
1007, -1.0026211184926979
1008, 10.79461196126249
1009, 18.688334304823
1010, 9.802047154508728
1011, 0.42509923069064826
1012, -0.7522774428871344
1013, -0.8301930740876742
1014, -1.1148258851371793
1015, 3.746399930673306
1016, 15.019997747429443
1017, 33.452397045175076
1018, 50.593506652749966
1019, 54.28389135147063
1020, 53.26745264029478
1021, 55.604109677552515
1022, 55.445678314739325
1023, 50.9799877413584
1024, 53.050275494565085
1025, 59.98675408376812
1026, 49.66751250563084
1027, 27.81501278397809
1028, 16.801716544663577
1029, 13.315485406994412
1030, 8.550213214623
1031, 4.060715830070421
1032, 0.7827711812378766
1033, -2.756119302614934
1034, -5.807229946020016
1035, 1.9530514511152433
1036, 18.580106715312013
1037, 27.413316800709254
1038, 26.060302040107672
1039, 12.702444051201383
1040, -0.23916666448667456
1041, -1.7917718742946818
1042, -3.991655673276
1043, -11.505257946763322
1044, -14.97604266719327
1045, -11.963653433301715
1046, -0.7335650665736466
1047, 17.775644127903433
1048, 38.781272383539545
1049, 47.739381054055684
1050, 29.346204083911744
1051, 4.066396660526152
1052, -15.715163085781569
1053, -21.05583067887028
1054, -13.639753047909835
1055, -12.332393856391263
1056, -15.896266553443184
1057, -16.09839029104205
1058, -15.683322244635747
1059, -18.13891649142215
1060, -18.130377588671763
1061, -13.333708140418821
1062, -12.515978174802513
1063, -15.180463037586833
1064, -7.181716968534147
1065, 9.991602980679545
1066, 28.31502888109344
1067, 47.02551532240523
1068, 60.83124218306784
1069, 71.45980410978154
1070, 87.93856634777421
1071, 121.76843729603115
1072, 165.1840402611124
1073, 211.42290831169385
1074, 253.26847593713273
1075, 277.15861987064636
1076, 291.16155272913784
1077, 303.44723746733007
1078, 307.26205517190556
1079, 298.846072154794
1080, 272.98203402745276
1081, 234.1060532921747
1082, 202.3043194530792
1083, 170.92952085044362
1084, 125.44291235625724
1085, 75.10154054156874
1086, 35.05524319568485
1087, 5.978269984811504
1088, -10.910196440782784
1089, -2.75173389698557
1090, 19.391783386396583
1091, 18.77953651796406
1092, 2.6792291126794225
1093, -13.962074694719831
1094, -23.323168521500975
1095, -21.44081324597346
1096, -12.000554746352918
1097, 1.767977378469368
1098, 8.336500653566873
1099, 6.726991990964962
1100, -1.9474301348705012
1101, -9.710903874362884
1102, -11.055830772233094
1103, -13.594341712515416
1104, -18.343465545355684
1105, -13.765478636764328
1106, -3.4737517697672047
1107, -2.1632221186036986
1108, -2.213345375843801
1109, 5.863712931605278
1110, 16.662239905690512
1111, 26.281077803558674
1112, 33.03066604405285
1113, 34.988788165713686
1114, 26.93130154102664
1115, 11.879120219627566
1116, -3.520892673086564
1117, -2.7681055927776015
1118, 22.162685254320422
1119, 32.738833408388246
1120, 22.12510196216749
1121, 7.397477584785065
1122, -6.262657190559594
1123, -15.498510094064386
1124, -16.333104166586963
1125, -6.27142571051013
1126, 0.16983512855404115
1127, 0.3558101911680751
1128, 3.3197965067497535
1129, 8.950313223298963
1130, 13.546251264120656
1131, 13.118746926394124
1132, 5.255112800919733
1133, 6.514194580373896
1134, 21.111143763343534
1135, 38.99768806384964
1136, 51.62608913428721
1137, 42.98086218267554
1138, 27.487818328979074
1139, 18.756198000207405
1140, 15.278975619308085
1141, 16.776114673738448
1142, 14.9229379141766
1143, 7.661663001347961
1144, -6.542895072055671
1145, -13.544970193658628
1146, -0.7837459108745861
1147, 16.460179680643932
1148, 30.242276096884098
1149, 30.686591180122605
1150, 20.984221209482257
1151, 11.101621391435856
1152, 6.6484987070555235
1153, 10.280402228333742
1154, 14.967449217287822
1155, 17.472966099032874
1156, 12.789800979234087
1157, 3.2392027784637776
1158, -5.108086837155042
1159, -9.457755436934804
1160, -8.134798547917171
1161, -6.670232213321015
1162, -4.6501942237132425
1163, 6.029660649194966
1164, 17.087976289561993
1165, 13.099157729764102
1166, 4.377052751329984
1167, -2.1932428042223364
1168, -6.93711929222809
1169, -8.209087031273157
1170, 0.4808394627839334
1171, 9.008468055847061
1172, 3.128964898422282
1173, -0.01228970062402368
1174, 6.056701519301214
1175, 13.520218375523655
1176, 18.354582723368367
1177, 15.93775186216999
1178, 9.615123506427835
1179, 4.431879352790929
1180, 12.77925345317908
1181, 35.40244276183853
1182, 49.4863374085885
1183, 50.664247831350394
1184, 36.07530628324412
1185, 13.997426780659225
1186, -6.990021424991937
1187, -11.682498480847471
1188, -2.5374729100424247
1189, 1.8607511019645244
1190, 6.621779244687559
1191, 18.746455237313512
1192, 21.877604545445365
1193, 11.524653565348217
1194, -0.1988680181525524
1195, -10.27358618627727
1196, -17.24976662204722
1197, -13.913067689432182
1198, 3.728365981590514
1199, 16.890076330091915
1200, 20.64082920081978
1201, 18.066954277102013
1202, 18.904111482778262
1203, 35.738140167547726
1204, 44.781430121965286
1205, 39.96156895584386
1206, 39.16882927368465
1207, 39.100914726974224
1208, 28.27205586788864
1209, 19.977798094142827
1210, 23.68940099125325
1211, 23.162562464077155
1212, 20.78763637326574
1213, 35.74998970172783
1214, 49.54691357536467
1215, 44.20050839973783
1216, 22.52992830410176
1217, -7.0810788750727625
1218, -13.337935794210352
1219, -0.3414524046504539
1220, 21.652914077426885
1221, 35.163075662004985
1222, 31.296441970869182
1223, 10.421254358361466
1224, -12.76280744809219
1225, -11.124752584829366
1226, 2.162547067640162
1227, 16.724983006944967
1228, 19.00535061725145
1229, 8.913624944361345
1230, -3.9461975907631768
1231, -12.645519471503349
1232, -12.287590533809635
1233, -16.24558009921816
1234, -24.768481244358554
1235, -20.68275948159294
1236, -8.918886110611766
1237, 2.2319411887490332
1238, 14.594170865249225
1239, 27.29706541459177
1240, 35.47300412024697
1241, 36.61943346345288
1242, 27.80883032565316
1243, 16.07472654627827
1244, 6.149191223806611
1245, 4.676838678470631
1246, 10.803407313844218
1247, 21.366187639033797
1248, 22.425356215087504
1249, 8.903768623964424
1250, 6.328697106607251
1251, 17.97297934443668
1252, 40.73930078911144
1253, 54.72797103007633
1254, 47.75892832909767
1255, 32.59617250924384
1256, 16.84542506159096
1257, 14.360232219604768
1258, 24.335024233756485
1259, 44.57433966454346
1260, 49.17144192492469
1261, 40.66357649044312
1262, 46.38355849274103
1263, 56.144800776387
1264, 58.64793454571918
1265, 55.16601458733203
1266, 45.834668148809214
1267, 29.862030173226685
1268, 25.119448535677293
1269, 43.843104394026795
1270, 52.37618365773187
1271, 43.52206837534777
1272, 25.74166315961702
1273, 10.108664024671725
1274, 7.806556274031664
1275, 11.155321276672112
1276, 16.08456954405574
1277, 14.66118068544165
1278, 8.452635722420382
1279, 0.32290466011704666
1280, -0.3187850565282133
1281, 4.894008126414747
1282, 2.146038111979351
1283, -2.7503221825616038
1284, -3.146120515156099
1285, 3.5064048617769004
1286, 16.02938997745764
1287, 26.2601888749723
1288, 31.33363795561627
1289, 28.798746824023965
1290, 14.642248491535383
1291, -4.334045961815718
1292, -7.178303646605855
1293, -6.3886267066275195
1294, -11.240489519688026
1295, -11.82946270000184
1296, -8.1393198758567
1297, -5.401779725860706
1298, 2.5345317567293932
1299, 19.32986918018628
1300, 35.55206865183027
1301, 44.352224821224354
1302, 35.773372546990686
1303, 22.11346639617227
1304, 10.301650981244848
1305, 0.34030485231687635
1306, -4.765560831893254
1307, 0.9898462357552944
1308, 5.94295833678143
1309, 5.107147088298689
1310, 2.018614959011302
1311, -2.9614502390825237
1312, -10.008187545242663
1313, -8.040207349518823
1314, 2.9037869678361403
1315, 8.145152225006996
1316, 8.947272243111456
1317, 7.640697820906098
1318, -1.6063848919643533
1319, -14.167406138512433
1320, -14.477600497601316
1321, -7.1628175096868745
1322, 4.405376661236687
1323, 19.903374073822533
1324, 31.551683355606883
1325, 26.00039441455192
1326, 12.080173435050938
1327, 0.009641575225714405
1328, 9.804137358812795
1329, 30.950411577405475
1330, 43.05379815451852
1331, 45.22772219590411
1332, 39.41149778663703
1333, 32.971356641862485
1334, 26.262948597787044
1335, 18.326486806775392
1336, 2.30394385664772
1337, -15.981411817208254
1338, -22.22102541455706
1339, -14.570986899669606
1340, 4.767207018729323
1341, 15.944307163090798
1342, 20.238322617736458
1343, 24.806602774501243
1344, 29.31139679607236
1345, 32.40484529593709
1346, 30.08388116715514
1347, 17.814931832011325
1348, -4.565214828378657
1349, -8.581323728499456
1350, 1.3265448974996161
1351, 4.593909571858603
1352, 2.398067309948601
1353, -2.7314494577137793
1354, -2.156513347420969
1355, 10.806775180654313
1356, 41.17375005979193
1357, 52.35999692041082
1358, 39.05658001542679
1359, 15.634938697031203
1360, 2.416074441025785
1361, 7.4989042625550155
1362, 17.898321051780385
1363, 25.58694719110713
1364, 24.007893727533883
1365, 29.88520799517164
1366, 41.783468838168346
1367, 36.207174260027614
1368, 20.648718199498035
1369, 3.7657080982853586
1370, -2.6678291846922093
1371, 1.0730061719800688
1372, 11.125030976816106
1373, 1.9475381088923314
1374, -22.646406068215583
1375, -18.497169171498854
1376, 0.5955429225693933
1377, 20.073773179796035
1378, 27.103901485839287
1379, 22.653127208238175
1380, 13.272199215390629
1381, 9.275954518883054
1382, 11.956063627084404
1383, 7.808605992351659
1384, 6.991825118240058
1385, 16.940084119585208
1386, 31.9444659359217
1387, 42.49982056161298
1388, 35.31506556603972
1389, 19.49532416429747
1390, 3.5624334292529056
1391, 3.19243799237438
1392, 6.519604921054906
1393, 4.870058129819881
1394, -1.7581193599150993
1395, -6.631668393996733
1396, -0.719614983460815
1397, 7.860453125528011
1398, 18.847763465991875
1399, 35.38847995634728
1400, 46.163798853486696
1401, 46.746590862530866
1402, 46.885697711175226
1403, 38.24835445178519
1404, 13.266338490523594
1405, -3.236693225634099
1406, -6.022023514162129
1407, 6.476997326018136
1408, 23.72643737920066
1409, 35.99928835663286
1410, 29.857510121610176
1411, 16.33548793041973
1412, 5.928444430810032
1413, 8.602640594705917
1414, 16.712606079791158
1415, 17.318332403114027
1416, 15.659277800612017
1417, 12.989574077257203
1418, 8.753806087944895
1419, 6.2216662071059545
1420, 4.415221605886927
1421, -3.7608779800361845
1422, 2.009805381116621
1423, 32.83107749794999
1424, 45.014273862988375
1425, 46.678566584364034
1426, 56.906303471160754
1427, 47.40297629831957
1428, 22.450297746784145
1429, 8.996433492128972
1430, -6.69604897265549
1431, -23.317440596318193
1432, -8.121253387636216
1433, 17.36704058443047
1434, 34.396076167087585
1435, 38.43786647856291
1436, 28.679484337938675
1437, 7.5611202201021115
1438, -0.13922535429992422
1439, 6.918843943791899
1440, 21.862470439011076
1441, 29.38697831767672
1442, 22.53266293700267
1443, -2.33014797761939
1444, -12.84336602033818
1445, -0.06190053758336944
1446, 5.389749992255247
1447, 7.935872703212453
1448, 10.758029977290335
1449, 0.9046182466456685
1450, -7.613803556256244
1451, 1.845287500470704
1452, 8.020311937616498
1453, 15.822182686458063
1454, 39.091179064917014
1455, 30.720165684265567
1456, -3.504457800235514
1457, -8.170323069013875
1458, -2.019187486844203
1459, 4.992786286564069
1460, 12.530608891237762
1461, 6.325263486341328
1462, -14.688842476119817
1463, -12.487575098292382
1464, 1.8321762767095606
1465, 12.293190818895255
1466, 6.407797007019099
1467, -2.5502953609234282
1468, 3.4930045132175565
1469, 5.1587431067107445
1470, 2.371359514330834
1471, 4.700788111625343
1472, 12.363351906447406
1473, 17.650368826052727
1474, 5.212522237267876
1475, -2.752551615024913
1476, -0.5638011398004892
1477, 3.25728181051295
1478, 19.930055959764104
1479, 42.182855683125126
1480, 21.981582755634236
1481, -1.5100624771089315
1482, -2.1663794810333457
1483, 2.3539243789596185
1484, 4.922371702883311
1485, 2.476180181257405
1486, 2.5662132871198082
1487, 7.005674155577708
1488, 14.68022513157598
1489, 14.95291075796672
1490, 6.395931835810188
1491, -6.70023328977868
1492, -0.5835032321422204
1493, 17.369560760183504
1494, 24.440473427713414
1495, 17.11927385278318
1496, 5.85452467174855
1497, 11.456992738889767
1498, 17.65159186974779
1499, 17.53888452144747
1500, 8.416304757339049
1501, -1.506584492694401
1502, -5.901909986454939
1503, 2.1431712956009505
1504, 6.767823502207193
1505, 2.7982876191179002
1506, -2.6148403324059473
1507, -6.990902420224529
1508, -9.143330295072246
1509, -8.280517374018928
1510, -6.543300835303171
1511, -3.819691467986104
1512, 3.9534254664295077
1513, 12.42183188988247
1514, 17.461825458962494
1515, 17.018547066234305
1516, 11.691493784656586
1517, 9.422977611116039
1518, 33.62138055042715
1519, 48.13974839928619
1520, 34.02890177590916
1521, 14.080288523004583
1522, -2.522772052780965
1523, -9.63637494074942
1524, -0.8590737364397683
1525, 4.7064606595993155
1526, -2.8175488358483562
1527, -6.61334180957806
1528, 2.0151491033263937
1529, 20.416400082170867
1530, 12.142319120882803
1531, 0.6804875408333828
1532, 0.38228543408399673
1533, -10.826292397793395
1534, -11.441384260146833
1535, 6.519479528910779
1536, 5.527961606964482
1537, 5.368338583338982
1538, 14.870115826826577
1539, 5.067662108704326
1540, -4.9956809250393235
1541, -3.7422301645117386
1542, 0.7783259001816987
1543, 3.5299972629259173
1544, 5.133222821636991
1545, 16.611809362467056
1546, 15.019432503567941
1547, -1.7849998521751331
1548, 1.537101393861576
1549, 3.0760464444920217
1550, -0.40488810569377165
1551, 18.312319785099817
1552, 32.22000915822355
1553, 32.193634871642416
1554, 29.996527547967162
1555, 20.139189194854907
1556, 5.051164997651085
1557, -2.736688455066542
1558, -1.1240561898503074
1559, 3.4387322923380452
1560, -3.2491543146009008
1561, -9.527723070706088
1562, -15.478088402031972
1563, -26.505615838089398
1564, -25.75832933876245
1565, -14.9860749788877
1566, -3.7370085164998272
1567, 6.938681183950166
1568, 12.575874224906784
1569, 8.913135641729696
1570, 6.41617718644693
1571, 17.61622996595588
1572, 50.71184967277668
1573, 87.49912139066873
1574, 114.01133773240849
1575, 126.81246875233956
1576, 131.12113460654814
1577, 142.69596129844217
1578, 165.92766440751598
1579, 182.17820768423326
1580, 201.6959166021977
1581, 221.2382221292644
1582, 216.4247127850988
1583, 210.93504536535988
1584, 202.04352125632863
1585, 165.11444485684365
1586, 137.6737150180477
1587, 108.97193934619418
1588, 47.90053259243541
1589, 14.19455436919884
1590, 7.712487446464138
1591, 12.695148811509625
1592, 10.997639591713096
1593, -0.46852225218867716
1594, -16.674602517284256
1595, -12.952302478397087
1596, 5.333013052842034
1597, 23.02002628396326
1598, 4.019195051796487
1599, -21.269696293906463
1600, -33.31758730613933
1601, -19.07977489211089
1602, -5.652707131458101
1603, 6.076085968844609
1604, 27.380432870902723
1605, 37.37847475080366
1606, 36.29266883066339
1607, 29.040608014940517
1608, 11.191369605580121
1609, 9.863155036722901
1610, 31.57164563557103
1611, 24.4859921614634
1612, 5.017546789877088
1613, -8.617589682957714
1614, -1.4567263754777287
1615, 16.12085247414234
1616, 23.334613233950222
1617, -2.504551634221116
1618, -11.534927426919467
1619, 0.6349974236002254
1620, 22.480787109625
1621, 24.17112703895191
1622, 15.95281933407523
1623, 11.65053970232816
1624, 24.32004803601785
1625, 31.629744474156496
1626, 23.59782487376515
1627, 3.0464158181523544
1628, 7.920422529163943
1629, 25.81230934497671
1630, 26.79820249881618
1631, 19.30282394046708
1632, 9.977962512353088
1633, 3.9323550426663587
1634, 5.130795495335633
1635, 4.2001993720923565
1636, 1.6610644854752081
1637, 6.908145223864494
1638, 0.763857632356121
1639, -9.178476716477917
1640, -8.339509390445528
1641, -3.985048945340168
1642, 2.559102527419327
1643, 9.078424795008004
1644, 7.15506093911722
1645, -5.059604300731962
1646, -14.894812356508965
1647, -0.7413033401851408
1648, 5.494100985703199
1649, 6.563887162229548
1650, 7.36386379856458
##END=



