##NAMES=
##LOCALITY=
##RRUFFID=
##CHEMISTRY=
320, -3.9944787028553037
321, 0.8972288391805705
322, 6.516201043759793
323, 10.44253250615111
324, 13.966767246118252
325, 20.498490228490482
326, 27.617917849294827
327, 25.75367463888506
328, 15.023099789534172
329, 5.75397400096972
330, 1.175125550021221
331, 3.291324092524519
332, 13.665954229064482
333, 28.585309725546722
334, 40.66914176078353
335, 48.26794691521627
336, 46.89218969688045
337, 37.872251992769634
338, 31.056578515235742
339, 28.05276840829265
340, 27.214530963085963
341, 27.90514854214416
342, 26.33005539331043
343, 19.3670024655039
344, 10.44554186568439
345, 6.960683578907265
346, 8.05299310027658
347, 11.281767060611855
348, 15.316794155056414
349, 17.66047142465959
350, 17.623294007703407
351, 12.22414625186775
352, -0.07299220844561205
353, -11.4330687442598
354, -14.11526239390696
355, -9.36405521919005
356, 0.9374539581212957
357, 15.081179049906495
358, 19.647537189848663
359, 13.769977875470431
360, 10.206617084035315
361, 13.81549119592637
362, 17.302756830070393
363, 16.727107569154214
364, 16.126249226039363
365, 21.027751200261264
366, 26.181449589093063
367, 16.831246593595097
368, -4.042899566061351
369, -14.225857036414709
370, -11.67253351376985
371, -5.8180337059893645
372, 0.603439098704257
373, 8.806652054115148
374, 20.00621766819586
375, 29.96349920596731
376, 33.741030101500655
377, 32.55714727337454
378, 30.10597130583119
379, 26.861967719368295
380, 24.25307598550353
381, 22.61728332229268
382, 23.500639792791844
383, 27.366309754730537
384, 26.54929389600875
385, 15.859674335413729
386, 3.2382482602788514
387, 0.22716532366303
388, 3.2067711338268055
389, 3.101896086850502
390, -0.15758148900204105
391, -4.237685630499072
392, -9.43856669429897
393, -20.22057226540801
394, -38.548383013087005
395, -44.51041211762367
396, -25.73272407850982
397, 1.2509901606681524
398, 16.85366657128725
399, 21.856678774282045
400, 18.496733659240817
401, 8.251079154087165
402, -2.673941914445095
403, -12.884614898111977
404, -14.587383006009986
405, -6.1078168291587644
406, 1.9032247056866254
407, 4.802160398065098
408, 8.481421975181547
409, 18.409048605730277
410, 32.82696888483588
411, 44.985931544979394
412, 54.21977898593559
413, 58.6457309646903
414, 57.98026537484748
415, 51.35581661431752
416, 39.58490970069761
417, 41.468244279959436
418, 62.05731944580566
419, 90.102680871134
420, 111.12482567812549
421, 131.96105982199242
422, 160.83118715155706
423, 188.2028086453447
424, 192.863087021914
425, 179.33913770223717
426, 169.0305485370036
427, 162.75272197403228
428, 149.05775232295764
429, 126.015888730195
430, 104.37760672104014
431, 88.30301735637477
432, 71.02469426339849
433, 47.787360407839515
434, 26.65356028534461
435, 9.875308863601276
436, 1.6398039355117362
437, 15.001893044013741
438, 43.648727849085844
439, 51.30791894367121
440, 36.7112379600585
441, 21.10711891680876
442, 8.861503032422661
443, -4.923916598277174
444, -23.676701900766602
445, -27.11434653901688
446, -0.5477504834152569
447, 32.807121962790006
448, 40.7212875324185
449, 31.60727976196631
450, 24.051460661818965
451, 18.186386241321998
452, 12.055808826733482
453, 7.586924518463093
454, 10.553528102022028
455, 21.572385763952298
456, 27.01981503439947
457, 22.910714932728297
458, 18.28925724173041
459, 18.230264520578203
460, 17.80194100945937
461, 12.151312974679058
462, 2.6875063098641476
463, -7.888926332937444
464, -16.741258248676786
465, -13.628439013756179
466, 0.5096281199530495
467, 17.482339385815067
468, 34.60351392616849
469, 39.633206985061406
470, 29.761903997738955
471, 7.897159553370329
472, -23.721678120001343
473, -40.174128158624626
474, -24.481465199567538
475, 2.7321943761880902
476, 18.71687430442489
477, 24.76991969802566
478, 23.961649583459803
479, 16.964857423865396
480, 5.63974239032359
481, -7.573718496649235
482, -14.976438002953728
483, -15.935774764840062
484, -9.730896936881436
485, 4.016823618518174
486, 17.520248093476766
487, 26.768567286247162
488, 33.940343484386176
489, 40.420651638280106
490, 39.777745821246754
491, 25.195687412278858
492, 7.467069130171694
493, 6.069032080346005
494, 14.114641205822409
495, 11.597206160722635
496, -0.652314848169226
497, -14.244046294891632
498, -27.72691952682635
499, -29.103669325327246
500, -16.835359211285322
501, -3.5035069576770184
502, 7.617920631795641
503, 10.784437157288266
504, 2.963933172361976
505, -3.0782274892771966
506, 2.5875288416209514
507, 20.235676682395933
508, 51.26378318654588
509, 90.1320088695602
510, 114.71248012106207
511, 127.47030356686173
512, 137.16315358388783
513, 147.47457655369635
514, 172.758705504486
515, 211.24587216835243
516, 235.97822144672136
517, 241.99686037535866
518, 237.42966079837424
519, 225.051217854043
520, 211.08727104022182
521, 198.4945008823861
522, 186.3628716183539
523, 174.03887433268937
524, 156.4786582736824
525, 128.02355577061553
526, 91.65416454765818
527, 52.46589207279794
528, 22.17846955650657
529, 13.864434330017502
530, 20.856885032655555
531, 19.19650226491831
532, 9.323347574411855
533, 6.834109996336338
534, 12.743557773440443
535, 14.3167113803338
536, 9.27792598020369
537, 8.403542988275149
538, 14.793448723004076
539, 17.615507572476417
540, 11.834070114135102
541, 3.1085802385932766
542, -4.069883316824416
543, -3.9951867908885106
544, 10.461644247853656
545, 29.403792258757676
546, 33.3383921315035
547, 31.148227672795656
548, 47.14286046682173
549, 71.81588210644713
550, 81.32830496805946
551, 76.63137032045415
552, 71.04144791707495
553, 64.58142271368433
554, 45.42499562037665
555, 14.06363799555038
556, 2.623137628045697
557, 16.97251740570573
558, 29.262446880593416
559, 26.722706270104936
560, 21.40864161202626
561, 19.771595705718937
562, 15.672762957127816
563, 4.49505283529561
564, -6.393020110415819
565, -10.62009058068088
566, -12.051843256951543
567, -16.065498600562933
568, -17.090227900212994
569, -2.6560933732071135
570, 20.705278968188395
571, 29.52873331410774
572, 24.208286409172615
573, 11.849000870231976
574, -5.178338159686064
575, -18.499174330430833
576, -27.032428950989924
577, -23.231762246799917
578, -6.717132741834575
579, 4.188862887464893
580, 5.431143779827835
581, 6.618870895650616
582, 11.529115048359017
583, 23.24439358699874
584, 41.77349768937074
585, 53.09425399084057
586, 47.864803796451724
587, 32.36406339633004
588, 12.227012920765446
589, -5.1152506485082085
590, -13.813178740118019
591, -12.457938454049781
592, 2.7543631644525703
593, 23.163805836039046
594, 26.85967430365099
595, 18.063694017550915
596, 10.23623353827088
597, 3.7688798642943766
598, -2.29046949849635
599, -7.615656721383402
600, -7.906528610709302
601, -3.0395891177445264
602, 4.732396770648393
603, 15.376839167790877
604, 25.562704914169444
605, 34.348602205450334
606, 38.18393446474829
607, 35.61282981115892
608, 19.020911345199238
609, -13.212053918284255
610, -30.919486190280168
611, -22.022931676956887
612, -9.189478013175176
613, -4.497630313405352
614, 1.1581863295073163
615, 14.527352379730928
616, 20.177456577188877
617, 4.169156002632462
618, -9.807479729885017
619, 3.9132213160733045
620, 26.498140357084594
621, 28.029528208436204
622, 17.976836072096376
623, 13.860235379153437
624, 13.258954983015883
625, 10.04604273388577
626, 7.489376234436804
627, 12.005391405736646
628, 21.441203269539983
629, 24.89709698571687
630, 23.725373155351463
631, 26.272938954282836
632, 31.69476853158403
633, 31.73134945393076
634, 25.66590232362114
635, 15.733382556702963
636, 5.451874337889876
637, 5.414323573815636
638, 16.489721061233013
639, 26.087891753039912
640, 29.630156694434845
641, 31.986838704448473
642, 34.699557359617756
643, 39.74324148292908
644, 47.48772112580036
645, 51.337168727091466
646, 48.59832352554167
647, 38.30023829307265
648, 20.22634264863882
649, 7.9701351427838745
650, 6.64505082067808
651, 13.66964753594857
652, 28.128308455341084
653, 39.218763802947706
654, 39.907302467134286
655, 37.427361005849434
656, 38.077650130444454
657, 35.74752077803123
658, 24.210752568481894
659, 7.2382931534348245
660, -9.977474442076527
661, -22.889873685601287
662, -24.26139493130404
663, -15.05534017497348
664, 4.29552592840264
665, 27.008406048714278
666, 37.34302635978747
667, 39.08029049171955
668, 40.265262279371655
669, 40.68409686286759
670, 39.38228987517641
671, 35.136585963458856
672, 25.014763989333915
673, 10.478110617193124
674, -3.051635630624787
675, -13.99748287864304
676, -15.335893726088216
677, -9.042738434044168
678, -2.496338986970386
679, 2.4574602192160455
680, -0.5121072854126396
681, -7.621911276466562
682, -0.5969047937069263
683, 18.905600065642375
684, 31.727548511981695
685, 35.31903887991257
686, 28.339280460162627
687, 12.81166419766987
688, 1.5370902479835422
689, -3.3278650805827965
690, 6.937078621306682
691, 30.58778290623104
692, 40.89378367956442
693, 34.597340055858695
694, 19.673525424982927
695, -0.10817341987058171
696, -8.261799559306837
697, -4.291291993648429
698, -2.757785401207002
699, -5.369266079775571
700, -1.8318466224422991
701, 9.364044754430324
702, 18.85135695454528
703, 23.998686692858882
704, 31.928051614347623
705, 42.959774665745954
706, 42.94456922938707
707, 30.37050724575147
708, 27.29843475023381
709, 37.42391271740871
710, 36.929060188631865
711, 21.062481924981967
712, 10.432721670451429
713, 11.063322517454708
714, 12.815853328193043
715, 13.815929039402818
716, 25.375687202293193
717, 47.1397284107702
718, 50.14993609928024
719, 27.88613146994294
720, 8.805708078730277
721, 2.024230295829966
722, 0.8865303706988925
723, 3.5210419199374883
724, 11.292207745072119
725, 24.28313008308396
726, 27.775064665378522
727, 18.74334688302997
728, 12.649466332650718
729, 15.45569975758417
730, 26.482094534118914
731, 42.53963722127719
732, 46.53991901099289
733, 34.701942662483816
734, 24.22918509621195
735, 19.34346448561473
736, 9.199787425154227
737, -7.225365885120937
738, -17.418992824221277
739, -18.890103003831427
740, -17.598550823809546
741, -14.684016987527684
742, -6.232329316449523
743, 7.6847375186325735
744, 8.675685891155354
745, -5.676758616677489
746, -12.142454031449233
747, -6.0058053944326275
748, 8.461082765298215
749, 29.05016587510636
750, 33.945862471819964
751, 20.2974461175545
752, 2.858414741442175
753, -12.782813507381888
754, -12.425329459907061
755, 4.2971569931251
756, 19.774687926516435
757, 29.24098743908371
758, 28.212758600389407
759, 17.66524228512253
760, 7.841113925826448
761, 1.3793562430341808
762, -1.2993062900100085
763, -1.2693104634176962
764, -3.288237780478539
765, -6.400217890924523
766, -2.761420391037518
767, 7.294167949026814
768, 17.753962433153447
769, 26.19973716677896
770, 29.144060372847434
771, 27.597438427051202
772, 26.198560432465
773, 24.012293948962906
774, 16.893423480598813
775, 8.186897848469926
776, 9.030644598879462
777, 17.730516239151257
778, 27.23551179236165
779, 34.75627575652743
780, 34.58758434460515
781, 27.98784420465563
782, 18.011805010396074
783, 5.948444239982564
784, -5.411666734795745
785, -10.776906616485576
786, -0.3111947549532488
787, 12.24190566167681
788, 5.534805933326425
789, -3.4335537016440867
790, 5.202964437052287
791, 13.459251892759767
792, 0.3792501055831963
793, -9.637378410645397
794, 4.889327144568142
795, 23.681191516953277
796, 29.060060404630804
797, 27.56377405933381
798, 23.68259959242505
799, 19.336559709578523
800, 15.707247637301407
801, 16.4108061498996
802, 22.442345474341437
803, 29.531601279408278
804, 36.20574109606241
805, 36.44280800078195
806, 28.866482878288934
807, 24.841606196036082
808, 29.630540569769437
809, 32.570737017734245
810, 32.49549669830776
811, 37.59610863898206
812, 47.92521699555209
813, 51.89044570242595
814, 47.385036656165084
815, 34.45629025527023
816, 14.923418780888824
817, -1.7756882739499815
818, -13.621660307659567
819, -11.852556440057924
820, -1.674837626084809
821, -0.7684959555140267
822, -6.752756652195785
823, -11.558483830811383
824, -11.996650723787297
825, -1.511733742625438
826, 13.867160370507463
827, 22.33685598392094
828, 25.966959779793797
829, 27.73625104362054
830, 22.515880346048107
831, 4.9350312741548805
832, -5.298620486551954
833, 6.465505830577513
834, 23.421898019258606
835, 33.37931194676867
836, 46.175263798002106
837, 65.81870062212556
838, 66.08544632248731
839, 38.20994004946215
840, 14.70857972335898
841, 6.515509913725509
842, -1.0884196043648444
843, -10.676155014177766
844, -9.546045912208683
845, 2.7312017806311815
846, 13.620659420143056
847, 19.268798984864134
848, 13.488868532501783
849, -0.4167236622315613
850, -9.30820379177294
851, -12.529543351334723
852, -9.095889633409115
853, 2.893657067131244
854, 27.594983878158473
855, 48.68998533436661
856, 41.681848138699934
857, 24.48086660481431
858, 17.888707027103464
859, 20.952192489834488
860, 31.620272494807978
861, 46.01211706321874
862, 62.556867466401854
863, 67.15826428969513
864, 53.71805985625315
865, 33.315868556238456
866, 11.264932940875042
867, 2.708113090253846
868, 7.967866286149729
869, 8.412293621026492
870, 1.6543637150357426
871, -5.749455626116287
872, -11.47325236634515
873, -8.423520753896355
874, 4.362308390969702
875, 27.948630011145724
876, 50.99213131590159
877, 51.10936276185794
878, 38.9764394906847
879, 31.665703945553105
880, 29.873776144531803
881, 34.12416191814282
882, 35.704611250861944
883, 28.118187928986572
884, 14.616364496679125
885, -0.8291065136841098
886, -4.643400288089197
887, 6.952773511362466
888, 14.752338667074127
889, 13.18156402181694
890, 8.677521988264743
891, 2.801584817744242
892, -2.799796748171957
893, -7.820551393359892
894, -10.417960539695741
895, -10.900483476208592
896, -9.91332075399896
897, -6.258918891790927
898, 2.370268824555751
899, 12.169297158396603
900, 17.279756095592802
901, 14.67704553868225
902, 2.2122740474046623
903, -7.214845176910785
904, -7.643484291127152
905, -0.7719261282782099
906, 12.019462175050194
907, 15.860374359954676
908, 8.98130125480975
909, 5.539460886561756
910, 7.1086202701981165
911, 7.4942705588991885
912, 9.064974304199495
913, 20.71549010859553
914, 36.54893002829249
915, 45.68187894499442
916, 45.68889416353841
917, 33.75026745255445
918, 14.997170305504824
919, -4.459390334424825
920, -15.466771101400354
921, -12.777057154831255
922, 5.263922875588378
923, 37.72351935377037
924, 52.050259252208434
925, 42.8483331405796
926, 26.13600333882505
927, 8.56592961822571
928, 6.190676323210937
929, 18.030789659243055
930, 39.83541987266199
931, 56.28701831667422
932, 45.71802813429258
933, 20.65996643726521
934, -5.369364346185648
935, -17.249371907391833
936, -6.7595055198457885
937, 7.815823048447783
938, 18.938880191296448
939, 17.202760987341208
940, 3.4975092009076434
941, -1.6184442996109283
942, 2.7320891758408834
943, 9.028398069670857
944, 15.747799979039883
945, 18.629760742909184
946, 22.098237239305945
947, 33.292627530111076
948, 43.91833540206153
949, 45.965859468149574
950, 37.52149030124565
951, 18.23892174846651
952, 3.8682201002011425
953, -0.5262532576953163
954, 16.228820001071654
955, 49.47759125202765
956, 53.117803019842086
957, 33.021353167428515
958, 25.10523071012858
959, 25.666712092269336
960, 23.10493705807403
961, 16.899659237513788
962, 6.785314236580234
963, -4.675207539868552
964, -16.675623870018626
965, -15.060457356914412
966, 3.9656439030422916
967, 16.383458864195745
968, 15.797551731694966
969, 4.874359669016485
970, -9.526936750058212
971, -10.291375742963282
972, -0.9909752255321109
973, 10.239387666638322
974, 13.616188188716023
975, -1.2531673769108238
976, -9.138852064772436
977, 4.04505487214783
978, 17.19586524815304
979, 21.197837037641875
980, 14.335554567136114
981, -0.8474663537235756
982, -11.250352676937382
983, -12.581026432277213
984, 4.866676193584681
985, 28.142166511619507
986, 33.123401190916866
987, 21.431250107968935
988, -4.524244130383522
989, -18.14301277842742
990, -9.04973866744831
991, 3.997478139560826
992, 15.511810991253697
993, 18.727280882304967
994, 15.989825568348806
995, 19.74119012149049
996, 30.333312538122755
997, 44.2195671775421
998, 54.71002880236574
999, 55.00397128735631
1000, 48.69552919105854
1001, 38.637128017347095
1002, 36.35987758894089
1003, 41.96502725405662
1004, 32.29548582588359
1005, 9.63594696293103
1006, -3.1076436058874606
1007, -2.7504674308202084
1008, 15.822687170024892
1009, 31.973856556140618
1010, 23.890949537081724
1011, 9.751635443119994
1012, 0.9557199998534998
1013, -0.7722550276021138
1014, 4.8682944527568
1015, 16.370386529447842
1016, 25.578741283641193
1017, 9.161435510060528
1018, -12.489040620051128
1019, -4.251792008650227
1020, 16.876300262646055
1021, 34.14119415452478
1022, 41.45508796610329
1023, 36.310166145584844
1024, 23.52364345706428
1025, 7.047899900402172
1026, 0.5964194014727582
1027, 0.8028264123940971
1028, -3.8049293055059934
1029, -7.766074263639439
1030, -2.5267022940101924
1031, 7.33622097303396
1032, 19.004426296890415
1033, 27.787336167536978
1034, 31.280534559070475
1035, 22.93404971416885
1036, 6.249145244697047
1037, -1.698541149886296
1038, -0.09113913636792859
1039, 11.629913761248645
1040, 23.64437621052548
1041, 25.039670763213053
1042, 25.098686123360494
1043, 27.28869428763028
1044, 23.6493994248558
1045, 14.932552949235742
1046, 12.500800958703167
1047, 11.311828925480313
1048, -2.4213370957322695
1049, -15.302699029254654
1050, -13.451526089173058
1051, -10.698868352747922
1052, -12.987157599665352
1053, -6.281970617161278
1054, 9.979110619328367
1055, 17.38072277338597
1056, 12.926697197829071
1057, -4.679648885886309
1058, -24.68605794061932
1059, -35.81381052288771
1060, -39.00488323478612
1061, -34.6894981655837
1062, -24.66320420781949
1063, -12.507489593531318
1064, -15.87005633389299
1065, -23.04309461661569
1066, -0.812054939483005
1067, 39.81698040911351
1068, 86.32918853318733
1069, 147.21097171785232
1070, 229.41886249204435
1071, 306.11727740989954
1072, 376.45982986955005
1073, 450.58408063832485
1074, 519.4410112203036
1075, 561.4790173144088
1076, 590.9418996020518
1077, 621.7774073969467
1078, 630.3558217662535
1079, 606.4217095683275
1080, 555.5920078837244
1081, 481.9691711557957
1082, 395.81013873417214
1083, 311.96542615600356
1084, 254.38351668006862
1085, 200.5942455675522
1086, 133.35534376424857
1087, 74.42766140854565
1088, 23.393565755907275
1089, -10.525875163746605
1090, -29.080951454327078
1091, -36.116193088129876
1092, -36.2464022936997
1093, -34.25663168588335
1094, -27.572764758274843
1095, -14.5520191102637
1096, 2.3451490827033012
1097, 18.70002682932909
1098, 13.372129320845943
1099, -6.46785053827989
1100, -23.686051343142026
1101, -28.01273884422517
1102, -11.530861427737364
1103, 6.092044660082593
1104, 17.67479924210238
1105, 16.828170045699608
1106, 6.688908569968589
1107, -1.446545355541275
1108, -2.829736290132132
1109, 7.8502958576737
1110, 17.789311718526733
1111, 20.792630339635707
1112, 29.582240981588257
1113, 40.790894518273944
1114, 33.37343868123344
1115, 11.16575444721093
1116, -16.00479341782693
1117, -29.029451180520027
1118, -17.07547520248181
1119, 2.866494799312477
1120, 23.55864860334077
1121, 27.527876959974492
1122, 18.370669733537397
1123, 6.224739960534862
1124, 0.6573835825051901
1125, 6.868884324361716
1126, 12.942281504110724
1127, 15.106279775482562
1128, 18.519246635495165
1129, 23.206935242410964
1130, 27.77507745005005
1131, 24.19427472822099
1132, 7.002038240751062
1133, 1.1279585836541628
1134, 12.784887544493358
1135, 32.26423456953307
1136, 52.30001698244132
1137, 63.08859614951734
1138, 58.021482524020485
1139, 32.91700405822212
1140, 16.147072274163293
1141, 18.91412539052999
1142, 35.060055577827825
1143, 53.42261778530883
1144, 55.27891932385228
1145, 48.84196935061709
1146, 41.92007584836119
1147, 29.519793112188836
1148, 11.354901879251429
1149, -3.1498767477314686
1150, -14.005625124473227
1151, -21.7832420420973
1152, -16.08092037334245
1153, 11.468144435624708
1154, 38.38679402107846
1155, 52.92397251465036
1156, 45.839863442077785
1157, 26.095976699507446
1158, 13.26065205868781
1159, 5.65477493232811
1160, 0.4444101243911973
1161, 3.33387680201713
1162, 14.150712414903865
1163, 23.19634671284075
1164, 25.69891362534463
1165, 15.549360776775302
1166, -4.408478396996543
1167, -29.465200087992343
1168, -30.997732409836317
1169, -10.384649199376781
1170, 5.909527303454524
1171, 18.04087700242235
1172, 28.14878483248731
1173, 34.89885741756143
1174, 41.57519218572588
1175, 68.4981128344034
1176, 98.8693334095019
1177, 81.94086684123704
1178, 48.26598659551428
1179, 28.158979664513936
1180, 21.194149759016
1181, 24.71466869777487
1182, 32.83087322208621
1183, 33.72585706523341
1184, 7.607658022125634
1185, -14.165417731082925
1186, -15.532569367201631
1187, -11.116393610014711
1188, -5.980885243826378
1189, -5.756343755686885
1190, -5.461107572685705
1191, 1.0851807696913056
1192, 9.07049192195609
1193, 14.599723848658414
1194, 9.622192350106616
1195, -0.5676108267766722
1196, -2.7585825696260144
1197, 1.5240219233915013
1198, 10.803309118542074
1199, 18.72157242396679
1200, 22.975241927656498
1201, 25.962070352193678
1202, 30.529808226839577
1203, 39.36226769217183
1204, 38.78818829862075
1205, 26.45714907349293
1206, 21.30541796201851
1207, 28.726610169634114
1208, 47.22380047862862
1209, 56.85101611635082
1210, 45.717707028865334
1211, 26.376121108718962
1212, 5.731727586381112
1213, -4.262850625561441
1214, 0.8708035178110549
1215, 24.082131401657534
1216, 23.141069984711066
1217, -6.245243239703996
1218, -17.44281726100644
1219, -11.346409539126398
1220, 4.227128878942494
1221, 18.974809564872885
1222, 26.225751682868122
1223, 24.759965426491817
1224, 18.55325063942655
1225, 16.671801822773887
1226, 11.836775570624468
1227, -1.0415170847995796
1228, -18.484667099146463
1229, -33.72282293635317
1230, -25.871714839125616
1231, -5.770909204463351
1232, 14.786937267249414
1233, 24.486920754780385
1234, 23.052427632953822
1235, 24.891349152540442
1236, 29.866957925601127
1237, 35.500482278952404
1238, 32.44220193322735
1239, 19.63468707443235
1240, 11.907201775744852
1241, 12.112549230879267
1242, 19.46693313824835
1243, 25.551272370328206
1244, 26.34564266226198
1245, 20.72446219392623
1246, 15.499513732896048
1247, 26.404302182076663
1248, 35.06495762796703
1249, 31.090512656542614
1250, 20.12552040145374
1251, 11.554465706964038
1252, 19.34956679968718
1253, 37.532841777706835
1254, 56.82263182608813
1255, 60.59690523960444
1256, 51.360082694331595
1257, 47.282322362937975
1258, 46.8893824112256
1259, 46.91635320434898
1260, 35.09571370250296
1261, 16.15199791553323
1262, 16.25120279378325
1263, 26.751683819807567
1264, 38.43814869344624
1265, 42.4712072218058
1266, 41.352135643290694
1267, 49.089924637642525
1268, 61.0781334737062
1269, 70.88886850257859
1270, 68.89194592991589
1271, 53.76859488207174
1272, 31.150816706403475
1273, 11.637071307151018
1274, 6.190838946133226
1275, 5.242848468968077
1276, 5.630730818295888
1277, 6.672635186648677
1278, 14.607442392207304
1279, 32.555668775079084
1280, 27.740279483868107
1281, 1.7171443671454654
1282, -7.848332502081121
1283, -2.905662471289361
1284, 12.240874062208604
1285, 24.598575280022487
1286, 27.86880031405235
1287, 14.785865532438493
1288, -1.1644508384538312
1289, -7.550587077264936
1290, -3.0996262936182575
1291, 7.491989366636972
1292, 9.916742792039713
1293, 9.209195222664675
1294, 12.400079975811423
1295, 26.456235029380423
1296, 40.2930152073377
1297, 23.273444528232176
1298, 5.467680212555024
1299, 5.911750461820247
1300, 5.042153026052347
1301, 2.7781153246660324
1302, 6.550033141883887
1303, 1.1155861997708598
1304, -16.21505186224158
1305, -13.662917195695627
1306, 3.046651277226829
1307, 16.179675851383763
1308, 13.040614470728997
1309, -5.200612173699028
1310, -8.45729044855625
1311, 1.0582916842795385
1312, 15.747278620650377
1313, 16.112997488082783
1314, 0.5965981118129093
1315, -11.663960268213032
1316, -7.687876950729333
1317, 22.043105504462346
1318, 43.193180929414666
1319, 42.4770971781295
1320, 10.609242298560275
1321, -8.962413237368764
1322, 6.560868754537751
1323, 17.322718683864878
1324, 20.171289736180825
1325, 25.68444459900047
1326, 14.927186767738021
1327, -11.361311873116847
1328, -2.8267670365303275
1329, 13.229296392809829
1330, -6.983057344318695
1331, -9.39039987387332
1332, 12.519205035926007
1333, 16.89450179631649
1334, 12.214539631384923
1335, 8.92322183291617
1336, 6.523315833544075
1337, 4.390819989484953
1338, 1.9146885045670388
1339, 2.8213021995693452
1340, 6.258853844452005
1341, -5.4903237675166565
1342, -15.163096399269307
1343, 3.1754349460225058
1344, 9.178775557240897
1345, -2.6463110487638914
1346, 1.9712006813756489
1347, 9.964556504204666
1348, 7.8320538403590945
1349, 0.8489058555519478
1350, -8.811830587426357
1351, -19.798019720178672
1352, -14.843869814566915
1353, 12.766458018420508
1354, 51.46882553535988
1355, 77.24368740944647
1356, 66.76531585274824
1357, 41.36295623152546
1358, 12.661806536973927
1359, -4.249841932698018
1360, -2.9466305537389417
1361, 15.140236801975789
1362, 12.753276382329204
1363, 0.019193399642063014
1364, 0.9086295892889211
1365, 11.781328739102264
1366, 26.491990303637976
1367, 25.776423561344473
1368, 19.83748727807233
1369, 17.240311644741723
1370, 16.502725372487475
1371, 19.54369072383679
1372, 28.83300343312385
1373, 18.963920034173498
1374, -6.286393142867382
1375, -0.3109506420209982
1376, 8.268899155410054
1377, -1.1688468840807218
1378, 10.833236350657899
1379, 33.14094788263492
1380, 30.305218835243068
1381, 18.653135420505805
1382, 5.8613364077818915
1383, -4.583747275044516
1384, -0.630355783257528
1385, 24.692218732954643
1386, 46.40619899714693
1387, 53.255045718180554
1388, 36.566436690009596
1389, 28.581797175073007
1390, 32.87597717215749
1391, 23.719367792997673
1392, 13.540243479037144
1393, 10.750506293288709
1394, -2.0500225283735745
1395, -6.716892726212336
1396, 22.557390499682697
1397, 27.282721721863254
1398, 5.904800805606101
1399, 1.9537270106434335
1400, -1.992956999161379
1401, -11.948459448626181
1402, -4.713212880011724
1403, 3.7967233734957517
1404, -3.0933401944212164
1405, 4.486271621817195
1406, 23.649945023085365
1407, 33.07968002127882
1408, 40.66188697804
1409, 50.44052894393326
1410, 63.90706561669458
1411, 65.73820926543067
1412, 47.7448460951623
1413, 28.774267648158457
1414, 11.48249192855701
1415, -2.2224695312729636
1416, 2.2895709992953925
1417, 17.620552562931607
1418, 16.18078944696572
1419, 16.129739729806715
1420, 22.443706931890574
1421, 19.37955435221511
1422, 9.043212853696332
1423, -4.349669042105006
1424, -19.302401540810024
1425, -31.586707837515178
1426, -33.78048610067731
1427, -7.996994107795899
1428, 32.49000041156842
1429, 42.68892691684209
1430, 35.04692788366947
1431, 18.767529602884224
1432, 3.292533093446764
1433, -2.7253979837978477
1434, 2.638828992497565
1435, 3.9504153439675065
1436, 4.989865825607922
1437, 12.774322432882855
1438, 26.44436834267708
1439, 40.324972715374315
1440, 46.934113535828146
1441, 41.29615047513607
1442, 27.64470315200333
1443, 22.006429656765704
1444, 16.29305091199012
1445, 10.72994418476901
1446, 18.771039577708052
1447, 20.302745909806163
1448, 3.0327391607424943
1449, -6.087022023971713
1450, 2.395680649154201
1451, 32.99644571878889
1452, 51.067558421819285
1453, 49.62426585219919
1454, 31.90780070584833
1455, 4.988857245044528
1456, -13.56311919730615
1457, 9.231469635489248
1458, 22.840879288293763
1459, 12.62128609556612
1460, 24.896552508960212
1461, 29.933586186818047
1462, 11.860988506788999
1463, 1.028115842254465
1464, -1.9615326782027296
1465, 2.0586581248940092
1466, 23.465922019715435
1467, 51.56370058516404
1468, 64.8394146894093
1469, 63.97674105242004
1470, 58.63250463825989
1471, 64.0293800682116
1472, 61.501369350838786
1473, 49.38332596768964
1474, 37.90996294418642
1475, 19.755374426533308
1476, 3.2231727791572666
1477, 13.78207321877926
1478, 14.93279738309252
1479, -3.6107631238426166
1480, 3.735718454612879
1481, 14.608593301648625
1482, 14.168354833999274
1483, 22.755681493566726
1484, 20.803150365451756
1485, -2.039712408294008
1486, 5.485629117261624
1487, 24.89689662608157
1488, 26.17660366474138
1489, 13.232279350238969
1490, -0.39757073350551764
1491, 0.12069673111886914
1492, -4.85427928632248
1493, -16.369382918654537
1494, -27.40940727173711
1495, -23.13654881575303
1496, -4.0015349077064
1497, 20.369285954343013
1498, 30.32120005449997
1499, 26.294734273520362
1500, 24.113464301692147
1501, 33.14803369878746
1502, 46.26974607865532
1503, 38.179023478794534
1504, 22.56150653382747
1505, 7.898275893798427
1506, 0.48056988432108483
1507, -0.15403518184984932
1508, 2.07987445963181
1509, -3.9159228497444474
1510, -3.7174316940149765
1511, 5.54184842618497
1512, 5.683371132294042
1513, 2.6138425913732135
1514, 0.8510733951020484
1515, 0.15459456474627586
1516, 4.063630042482828
1517, 10.212186908946023
1518, 1.2059845157509699
1519, -7.991549182173912
1520, -7.442763544379204
1521, 2.731129408566403
1522, 2.101975298719026
1523, -14.138841097324075
1524, -6.684936976796735
1525, 8.54415745879146
1526, 20.558482481976398
1527, 38.18157446241753
1528, 35.72056868581831
1529, 8.251417865346184
1530, 16.27773635386643
1531, 16.001718581777595
1532, -11.60557962886196
1533, 0.3583143360528993
1534, 18.819075975136002
1535, 21.538797634267212
1536, 37.010686394196455
1537, 34.36996447219781
1538, 5.298821817215867
1539, 7.94855902425229
1540, 18.65475317316259
1541, 16.646125860388793
1542, -0.35891032451263527
1543, -14.362021309811098
1544, -15.062405960795559
1545, -0.723270148678921
1546, 18.234539223456522
1547, 26.654105914103184
1548, -1.4053710354457962
1549, -11.736854724261775
1550, 9.169505971908166
1551, 19.912923855360532
1552, 28.599181307430626
1553, 31.609187060977092
1554, 6.26555100034625
1555, -2.1680967301199416
1556, 5.760500050277415
1557, -12.689373253631402
1558, -19.58663417451453
1559, -11.860849519525345
1560, -11.8350742277255
1561, -8.25493284976119
1562, -10.769512362723844
1563, -39.12711875685727
1564, -36.98465754350764
1565, -11.44370515576702
1566, 4.011246285484958
1567, 12.439576918826333
1568, 8.504791839603968
1569, -10.246975508693595
1570, -2.0784303810457914
1571, 26.410975916198822
1572, 62.63668877812711
1573, 114.09971365370438
1574, 178.54683662487582
1575, 237.3044326354643
1576, 287.20069319512777
1577, 334.9707375185799
1578, 382.66450473860914
1579, 420.92974833658013
1580, 432.00830028918836
1581, 410.02354090498056
1582, 364.5400679339234
1583, 332.40772095480656
1584, 315.66221109555795
1585, 286.1694875033875
1586, 228.9066207016399
1587, 151.80399038645373
1588, 77.25203325286611
1589, 32.671001507146684
1590, 11.84741649108605
1591, 2.8660866652724053
1592, -8.120424928617467
1593, -12.501838631458668
1594, -5.729222627408944
1595, -11.660728372177573
1596, -18.22021641907827
1597, -14.338697502685136
1598, 5.2413445428016985
1599, 16.450364603550497
1600, 9.725900583419843
1601, -6.378544814140923
1602, -15.742132076252801
1603, -12.75256973759997
1604, 1.3096128287847932
1605, -1.8606248400633376
1606, -7.3828943748244455
1607, 4.994795386686974
1608, 10.14806541313942
1609, 11.85413255424237
1610, 13.90509992672014
1611, 8.445683422407456
1612, 4.301672638163609
1613, 2.842125115736053
1614, -5.355273575881711
1615, -6.859215627445565
1616, -5.03714421992413
1617, -11.326097279655869
1618, -3.84045124159843
1619, 7.666243870663266
1620, 11.757019520948916
1621, 32.89471498926628
1622, 47.09357529394333
1623, 40.39989477550762
1624, 25.841560059125413
1625, 0.8641658870828905
1626, -22.796082287045692
1627, -21.19833092364979
1628, -8.71662830802984
1629, 1.1907734550338773
1630, 0.04005657148081809
1631, 12.606726297272417
1632, 32.006409551840534
1633, 44.30686084191166
1634, 38.70936992170755
1635, 31.85791880867714
1636, 27.65144575155773
1637, 18.58877997183322
1638, 28.668316389262145
1639, 38.844450092724855
1640, 25.64065234737768
1641, 29.598157757257013
1642, 31.700584724845612
1643, 18.76460365560365
1644, 8.285910104095365
1645, -3.7860967812086983
1646, -16.827276319705334
1647, -22.287617114875275
1648, -8.9876276552327
1649, 9.285347316985735
1650, 16.13329640444158
##END=



