##NAMES=
##LOCALITY=
##RRUFFID=
##CHEMISTRY=
320, -11.470403012360293
321, -9.090676823699141
322, -7.470028079275835
323, 4.38437440348207
324, 21.098197623938177
325, 30.714098655102134
326, 34.04172837209717
327, 35.027674943534294
328, 33.612582228502106
329, 25.431661609120056
330, 9.652330870782862
331, -0.1080536592317003
332, 2.116184599835833
333, 10.701135606674143
334, 19.10636288465139
335, 25.633819441157357
336, 28.62288560360048
337, 27.659382723689305
338, 20.772233938227146
339, 8.413959807548054
340, 6.501198959928843
341, 20.567615656762428
342, 41.47447401772024
343, 58.48770741757835
344, 67.86321965525713
345, 62.668546463590246
346, 45.52787101120339
347, 27.309201020151704
348, 9.714700384071875
349, -0.6391496796095453
350, -3.494103283437653
351, -2.7066550591143823
352, -0.03759607011124899
353, 2.8735413399945173
354, 4.1591181826870525
355, 4.448615518432234
356, 4.532743538135037
357, 4.37713787561006
358, 3.542100499415028
359, 2.054359729925636
360, 1.2572021772275548
361, 1.4268552845569502
362, 3.091416499596562
363, 6.738488555353797
364, 11.202014978603984
365, 15.308958162743693
366, 17.4196801990347
367, 12.973959899713009
368, 3.139275505009209
369, -3.333041242037325
370, -5.937565250339503
371, -8.406411834230312
372, -12.136265186218225
373, -12.442032105676844
374, -5.867471504454443
375, 1.9955861981416092
376, 2.5423790059148814
377, -2.06822960583213
378, -5.485733081802209
379, -7.613297494734979
380, -8.567199298686319
381, -8.192322523417715
382, -2.759280435279834
383, 9.474038825802381
384, 20.58990902113146
385, 25.040283747406647
386, 21.908484135399704
387, 9.899503886252205
388, -6.180602148736398
389, -13.670889892076048
390, -13.344281267368387
391, -9.522120910370177
392, -2.83697389003828
393, 2.7295411218856316
394, 6.290371044384301
395, 7.766040358833379
396, 7.271962865313071
397, 6.30361161133078
398, 6.670335006792811
399, 5.923790424335493
400, -1.6737796613679166
401, -13.96758106643847
402, -20.72131202874698
403, -21.03921199501201
404, -13.1087240622237
405, 3.996027800104457
406, 21.612232651965314
407, 34.42182988400964
408, 38.70587621915365
409, 31.078989062447363
410, 18.282388302825893
411, 14.1733948180663
412, 17.608799879509206
413, 25.727753049577586
414, 38.76246204702784
415, 55.91380145921721
416, 72.62453684064803
417, 84.20512768555727
418, 89.21734997917883
419, 99.19807672949628
420, 121.32041848696372
421, 141.30196634177082
422, 141.97241952102195
423, 132.94052042856129
424, 135.62991775375758
425, 146.86631759198463
426, 150.67822036760572
427, 146.27958542190936
428, 140.80552883453765
429, 135.03821559583776
430, 113.82858583671168
431, 71.42618446307915
432, 32.32478320190239
433, 16.974553629217553
434, 16.466700508113718
435, 20.95240714398369
436, 26.913709604203177
437, 22.9527272282412
438, 11.224315415065576
439, 3.615458556455451
440, 0.22429660376110405
441, -2.0820989895501043
442, -4.161325950227365
443, -6.502078771448396
444, -9.388007061803364
445, -6.46482039105922
446, 7.066895346010824
447, 25.145716847649965
448, 37.81455979811835
449, 45.17145031791188
450, 47.49056021397064
451, 43.669726873999934
452, 29.526448359612914
453, 7.654109071159837
454, -0.6873871835095997
455, 6.368231193934662
456, 12.293475029901856
457, 10.904683354136978
458, 11.507512549930652
459, 18.771881760371798
460, 25.11845146932319
461, 24.221418251216164
462, 20.20811945985224
463, 20.200715098379987
464, 20.68804223823554
465, 11.168843720446603
466, -5.870925893043932
467, -15.539280175849854
468, -17.289267813536753
469, -16.485720555378066
470, -14.25345596729403
471, -9.44284344393509
472, -1.2747221050758526
473, 3.6164676883172433
474, 0.4139848537824946
475, -4.397630356101217
476, -3.9067315360052817
477, 1.168631646733047
478, 9.848062535460485
479, 18.26077452852951
480, 14.822742607410873
481, 2.0544197199596965
482, -2.4771641918368914
483, 1.911446487882131
484, 3.1170853537705625
485, -1.2774518729629563
486, -0.6260351920791436
487, 9.402145131693032
488, 18.04610491024232
489, 18.42445181664243
490, 14.71329093593431
491, 11.338182024211164
492, 6.93446691986901
493, -0.8674290539738649
494, -10.260649757974534
495, -16.88256483716941
496, -20.418139972088284
497, -18.274974838986964
498, -10.863738853927316
499, -4.521806990343066
500, -0.20224220738782606
501, 0.18827388697172864
502, -3.9516839603702465
503, -9.27895585328406
504, -14.432700113607098
505, -11.755319664106537
506, 5.379104356806238
507, 29.693320320197927
508, 49.28287472060856
509, 60.187048276146015
510, 54.68739359708161
511, 39.7377876976343
512, 40.80589357653571
513, 58.15892877286478
514, 87.53859613020813
515, 121.26751612869612
516, 151.02740159611767
517, 174.45848415834826
518, 182.7502824266012
519, 173.57681077677262
520, 161.6043030090941
521, 153.79718688628873
522, 147.8982970618199
523, 142.28673275479196
524, 142.08853842845565
525, 153.05459441426228
526, 158.85570960550376
527, 131.61185873100294
528, 83.15916027887033
529, 44.548136957099814
530, 20.71348745442083
531, 5.415037608072453
532, -2.1873624428144467
533, 3.1116357955961575
534, 19.977462568151168
535, 22.769767748189224
536, 6.809368986789195
537, -4.837701212631146
538, -5.6575671709251765
539, -2.18011414477769
540, 2.67418933087356
541, 9.562108012091812
542, 19.298661514015294
543, 26.666686335213853
544, 26.94358594879941
545, 24.162050720175102
546, 24.881654795660324
547, 27.913515215203915
548, 30.28845019344135
549, 31.624197763472694
550, 31.05855741875621
551, 28.18057420045534
552, 21.36877177394763
553, 11.725774820816696
554, 9.609604809881603
555, 15.383928670867135
556, 14.821267383981649
557, 4.85392480748942
558, -2.1342690323526767
559, -2.2412825129094927
560, 4.190138357729666
561, 17.576795272335403
562, 27.649380744578593
563, 26.99951233999218
564, 17.105978486591994
565, -0.4364316016781231
566, -16.71080789232019
567, -19.73501592105913
568, -13.733576456767878
569, -6.57747968512831
570, 0.4156217913096043
571, 2.9263082138177197
572, 1.8867377038041013
573, 1.0046939609201218
574, 1.950310339063435
575, 12.188417127084904
576, 30.17196336780671
577, 37.31735601371747
578, 30.246439576382727
579, 14.487911081163475
580, -7.531682628271483
581, -20.422719476449856
582, -19.607533984712973
583, -13.437824834814819
584, -5.559824001054039
585, 1.113656258856281
586, 4.781417747865817
587, 4.141852859232131
588, -2.366205076747974
589, -5.6633341391843715
590, 5.809456792057063
591, 24.6226616087406
592, 36.242669503529214
593, 41.633732193386095
594, 43.24135071814362
595, 44.300633379040846
596, 53.44449996838648
597, 67.56102284280314
598, 73.89773425928797
599, 72.7661631182018
600, 70.75422176847405
601, 68.0679788137104
602, 60.96000568125055
603, 48.86250031563668
604, 32.31504855944604
605, 12.45109795711869
606, 2.214259067554849
607, 3.2346666534604083
608, 4.019674563899571
609, 0.898340702616224
610, 5.723992786669442
611, 23.998955555292923
612, 28.05256096912126
613, 2.669899308230015
614, -18.239104790625788
615, -12.660096100362352
616, -1.498778911770387
617, -3.1726353363819726
618, -8.135717816666329
619, -5.588702544735497
620, -0.6199376389913596
621, -0.5480835091002518
622, 0.16830693670362962
623, 11.695279611205478
624, 26.159372846849692
625, 25.773188499343632
626, 14.080717193917735
627, 2.3218552197567988
628, -5.698529050223442
629, -1.14409181843439
630, 13.95005151883197
631, 28.244610313946396
632, 37.90571551773064
633, 37.542253923902535
634, 28.808982825165003
635, 25.786468530879574
636, 29.9291485328813
637, 34.810990303666586
638, 38.10369590787741
639, 30.260241562019473
640, 10.344383885392745
641, -4.064547716252491
642, -9.41738997734592
643, -3.3765722358202765
644, 14.996604194746396
645, 33.5477168091511
646, 45.081879997807846
647, 48.13829424417236
648, 42.219569210735244
649, 36.51844458747382
650, 36.08348358015155
651, 40.04132547636618
652, 47.76127138210177
653, 45.50340934318865
654, 23.034605209028086
655, -0.13900697899498482
656, -7.045858286031944
657, -6.386756487382627
658, -6.255538610396798
659, -4.401982517573742
660, 2.0101610971660193
661, 8.203956597526485
662, 6.588138855620855
663, 2.1566540447784064
664, 2.949455259201386
665, 5.352830163885301
666, 2.955137137084421
667, 0.03453915723730461
668, 5.481234676989516
669, 17.68065545655918
670, 30.753987431021415
671, 42.82708976983122
672, 49.753649630977634
673, 49.03166222947402
674, 34.33621299067818
675, 12.376926302743414
676, 5.81031478413388
677, 10.139445582740336
678, 7.055396291654688
679, -1.3187569789706686
680, -5.381664988043667
681, -4.964371203263909
682, -1.6009685615108538
683, 4.145736560663863
684, 9.616505428136406
685, 13.180954452166588
686, 10.829163779981172
687, 3.608999084483912
688, 0.12742833795346087
689, 2.0451057819009293
690, 14.201360062869753
691, 33.26550820901866
692, 35.45425748861362
693, 19.35656345589905
694, 2.6756694910473016
695, -8.953899467429437
696, -1.6052585179686503
697, 24.71991546933259
698, 41.54822437854091
699, 43.65750068346733
700, 37.565772534519056
701, 25.41689490099725
702, 13.33030406960279
703, 4.829373036129255
704, 6.1533227245872695
705, 17.18236508449263
706, 17.55835741748433
707, 4.070618836575704
708, -3.5955748920541737
709, -1.3075739273554063
710, 8.663450635834124
711, 25.512171412061434
712, 35.61195133578167
713, 35.13337783168845
714, 21.5241755372208
715, -3.8527053900497776
716, -15.561847669758208
717, -8.618151240333646
718, -1.2099027300982925
719, 1.9990435226236514
720, 5.060096198858446
721, 9.076233462828895
722, 9.077044696658959
723, 4.735632927820006
724, 10.289097018096982
725, 28.86774763342237
726, 37.309395034159024
727, 29.527810636964205
728, 15.55552180590712
729, -0.4834238787761933
730, -5.371547518512671
731, 2.9198048287098572
732, 5.653110688233937
733, -2.220011408711798
734, -6.497798476504613
735, -4.237257132172999
736, -6.323554011830311
737, -14.754208331200061
738, -13.523834712997996
739, 0.2533042202812794
740, 5.29141659812376
741, -2.9594758598022963
742, -6.161571449940311
743, -0.9859419566992074
744, -0.5146386717724454
745, -6.664126144124566
746, -5.260711078263739
747, 5.915021920520303
748, 13.712577468168092
749, 14.946195011179952
750, 16.25767957521839
751, 19.201304519707264
752, 24.219484959460715
753, 30.906098172178645
754, 35.59785922577703
755, 37.20385404699573
756, 33.30799184848365
757, 23.6506503180035
758, 9.45715608183491
759, -5.703682640712032
760, -9.326412812129092
761, -2.605823900278665
762, -1.4987884584052154
763, -5.857702525830064
764, -3.756823323548815
765, 3.9833988257823876
766, 5.90457501453966
767, 3.505003557303098
768, 8.143452608869666
769, 19.375801010462055
770, 28.164371911296257
771, 33.8285261091487
772, 36.75752471796841
773, 36.82402126530906
774, 33.52733616871228
775, 27.166207833317458
776, 18.688875839497996
777, 10.079492702574498
778, 7.269114367387374
779, 6.221314670902757
780, -2.362365944319208
781, -12.158192389931173
782, -8.618035510334266
783, 0.6736236345095676
784, 1.2271929573980742
785, 0.10068367530766409
786, 9.10426785979962
787, 21.274401800589658
788, 24.20676420221207
789, 24.45377885086782
790, 30.31694600468836
791, 33.9500108610755
792, 26.846767017071215
793, 17.396999542969752
794, 15.111321666940967
795, 20.65662785031509
796, 33.13181123112645
797, 41.1687157382803
798, 37.139311648801595
799, 28.413134373361572
800, 19.378252750552747
801, 12.486675741914041
802, 10.061397883551763
803, 7.855498877624996
804, 4.139587677794225
805, 2.4997840577216266
806, 4.230468518709131
807, 9.467911845141316
808, 18.488011254845333
809, 27.88995425909252
810, 36.7001439660462
811, 42.26058695194388
812, 43.91879438536034
813, 41.249951924342895
814, 35.27498926213866
815, 31.874097058745974
816, 30.468997008515544
817, 24.708170689257713
818, 16.173703074072364
819, 14.882614950678544
820, 14.139426957891374
821, -3.4276961013420078
822, -26.859640782484348
823, -27.94242804003352
824, -12.93469086631012
825, 4.450791984267198
826, 19.728163228598532
827, 22.921140031149662
828, 21.72720001344078
829, 26.546592529043664
830, 32.41644389960402
831, 34.049298354878374
832, 26.74511027771132
833, 6.848626362980212
834, -3.788845942275657
835, 7.256755355711903
836, 25.560759047625652
837, 41.713071201632374
838, 42.82635630511959
839, 24.680744542809407
840, 4.555091399790399
841, -9.570457598345456
842, -0.9181735054580713
843, 29.76986366966048
844, 35.0682977457609
845, 12.22333813849491
846, 1.0991121419965566
847, 4.777890538506654
848, 16.046418677023212
849, 29.49727738542606
850, 31.725103841633427
851, 23.10082053577935
852, 7.265205424285341
853, -5.905113525161141
854, 0.03887582733841555
855, 15.736867709033504
856, 25.311532162420008
857, 22.04305359448881
858, -1.5245405670966647
859, -17.270845547882345
860, -3.210657572258242
861, 17.8009415133356
862, 30.871410596844726
863, 39.873250250994715
864, 45.70594263244311
865, 31.959277325378025
866, -3.3070580744761173
867, -17.33424079935594
868, -3.9652294045490635
869, 7.948761991265201
870, 13.637229533675054
871, 12.698189930341869
872, 7.222725119327151
873, 4.867951870531215
874, 4.5967351147101
875, 0.11016255854065093
876, -6.160954192665486
877, -8.171940150222326
878, -5.799908741741092
879, 1.37993034862302
880, 17.312420931367342
881, 45.19135806036866
882, 58.09880292571597
883, 36.35086334977859
884, 7.793256646395093
885, -11.290195781075454
886, -14.594815944014044
887, -0.6457746915311873
888, 15.687239241436146
889, 28.582503251045637
890, 28.740936797817085
891, 18.010253311927954
892, 14.559599564049677
893, 20.709247069825324
894, 29.582107287272265
895, 35.880388422832766
896, 27.798150296564927
897, 12.316056497388672
898, 3.6259705013981147
899, 3.4579866588828736
900, 14.577590008548214
901, 20.45232878346269
902, 8.52861301018038
903, -0.8301177762041334
904, 1.9705754262749906
905, 12.831415678342637
906, 30.39982471361691
907, 45.51456690714713
908, 52.725520093731575
909, 30.47614411242739
910, -11.946029175696822
911, -20.246109788958165
912, 0.6109130838403871
913, 22.987595057062208
914, 40.79315913886694
915, 45.818983383996965
916, 38.57083517429692
917, 20.0312495389162
918, 6.64425908634712
919, 12.695402482328063
920, 15.760161495328248
921, 2.723957533568864
922, -3.6275245243341487
923, 3.74052186949757
924, 16.683738928213643
925, 31.433807315650483
926, 41.32737561590966
927, 43.62461652886941
928, 32.10816684782549
929, 13.286008401172694
930, 6.086386910300462
931, 7.720499522495629
932, 13.624718295950515
933, 12.626627437852221
934, -5.704548858710041
935, -13.263071935782136
936, 6.635396146061794
937, 25.38355389456683
938, 29.939078313279424
939, 27.058174445151963
940, 18.594423468112836
941, 4.503493088516734
942, -9.724813903478207
943, -6.244037640858551
944, 7.772012392159013
945, 10.735234022321492
946, 7.20436153760329
947, 7.855458449925209
948, 14.934252563675727
949, 29.408563151085218
950, 38.79942426999605
951, 35.78068466322293
952, 19.96181570542649
953, -5.822580239222589
954, -16.368726278932627
955, -9.029705766978623
956, 5.824950829820409
957, 25.171060928562838
958, 39.324596499418476
959, 48.34869566911584
960, 53.53275499618303
961, 52.19422313106861
962, 41.294177893907545
963, 27.323659977979332
964, 14.561352963278296
965, 2.7314727448256235
966, -8.715774263519052
967, -7.9434921590545855
968, 3.597246864128465
969, 2.0320885499686483
970, -9.440710473675608
971, -10.382108894805242
972, -7.575443228297445
973, -16.223980880467934
974, -18.98037613262477
975, 4.064924703116958
976, 24.631158575387417
977, 24.187429720423097
978, 26.525789929754865
979, 37.611719932307096
980, 32.00917156207288
981, 10.69044996764569
982, 4.735157255873673
983, 9.31767333768039
984, 3.218955077454666
985, -4.561107475897188
986, 0.3724864368714407
987, 9.789964701764802
988, 16.892052737197446
989, 19.14711142910255
990, 16.38166446084051
991, 15.636042085200643
992, 20.020245417720616
993, 25.13586261303317
994, 31.27642551030658
995, 40.851040694537005
996, 47.992924955762646
997, 41.44657880345312
998, 32.46929630476461
999, 32.66595558434619
1000, 27.48621919825291
1001, 10.113138976460505
1002, 1.4822277876273802
1003, 4.409248475971253
1004, 1.5656854425005804
1005, -7.028894335326186
1006, -10.465100990983956
1007, -8.738114045584553
1008, -2.909495929415243
1009, 10.850519284945221
1010, 36.89873412549423
1011, 49.830710117636954
1012, 37.20295375930891
1013, 15.693897254705007
1014, -4.816276568350077
1015, -7.895917042094879
1016, 7.250469768250696
1017, 35.817764417340186
1018, 62.46715369204685
1019, 62.34209781764548
1020, 48.01283266443079
1021, 31.49718543301333
1022, 14.601748575104466
1023, 0.4430653816070844
1024, -4.329151629315675
1025, -0.3413213652820559
1026, 1.6704853059200104
1027, 0.8692606960084959
1028, -1.6815880590520464
1029, -2.352593564621202
1030, 3.992624912514657
1031, 7.068833660257042
1032, 0.2293306365254466
1033, -4.174779615580519
1034, -2.8580548223972073
1035, -1.4994467193482706
1036, 0.5416518973452185
1037, 9.071349374410602
1038, 18.13167371975942
1039, 16.070196651740844
1040, 12.391285196767058
1041, 15.80842252936236
1042, 20.19906302133313
1043, 22.096023317135405
1044, 15.877918098532973
1045, 3.5638586445675173
1046, -0.1598263281466643
1047, 2.7576304190624796
1048, 5.6538766731582655
1049, 0.49609520910053106
1050, -20.385007575191594
1051, -36.00247808319
1052, -35.33344813016356
1053, -15.958988048458195
1054, 16.545364632860583
1055, 25.166113548414614
1056, 11.06432081060575
1057, -11.252823236913173
1058, -28.578615128363708
1059, -26.68794006169537
1060, -15.391958973727014
1061, -1.574187609717228
1062, -11.079924846753784
1063, -42.43480954802726
1064, -50.61805662329061
1065, -37.690524196615115
1066, -19.86622078088294
1067, 2.404484825809959
1068, 29.5584118445704
1069, 61.311358108286186
1070, 100.7207079500813
1071, 166.96763178694619
1072, 266.63893061115414
1073, 365.5251640237493
1074, 455.23323795353554
1075, 522.341158172706
1076, 572.4733819735802
1077, 611.0559661823781
1078, 621.8126361712393
1079, 600.2580399609351
1080, 571.4877763753111
1081, 536.819720180757
1082, 480.9937802407503
1083, 410.23132463966795
1084, 337.5811784403877
1085, 251.5937192909223
1086, 145.43722901656565
1087, 72.49504675332628
1088, 36.27732240318619
1089, 12.77874908107242
1090, -4.595531503802704
1091, -19.87389681850982
1092, -35.17228551909466
1093, -52.203953785320664
1094, -52.43722739449731
1095, -27.663708966025297
1096, -7.122755411977778
1097, 2.3228994872724797
1098, -0.9161882329535729
1099, -13.292509686446465
1100, -28.198454391257656
1101, -34.655118650940494
1102, -23.919138989897874
1103, -7.890672313648793
1104, 8.64020133789927
1105, 17.30619907963137
1106, 17.890841666976485
1107, 13.743075655804205
1108, 6.077371260673317
1109, -3.028412231931725
1110, -5.258816771480269
1111, 2.5013594683186966
1112, 10.439097942785338
1113, 15.34102319880094
1114, 15.210456883896768
1115, 11.508326868813128
1116, 6.718407363227016
1117, 3.0083506641985878
1118, 1.5295329626578678
1119, 8.853439516125945
1120, 23.054335283528417
1121, 24.250362735704584
1122, 17.399546970430492
1123, 15.4215256327725
1124, 8.324849500290838
1125, -9.43650417916524
1126, -19.040663711506568
1127, -15.819076632105862
1128, -5.164796969715098
1129, 13.335064413567125
1130, 41.72981747931044
1131, 62.677520398106935
1132, 63.233683161790395
1133, 57.22588236326192
1134, 50.57211647210352
1135, 47.955536924506305
1136, 47.77029256476271
1137, 44.869408571746135
1138, 34.00014218151955
1139, 11.820775740208774
1140, 3.419217217808182
1141, 15.644592447729337
1142, 42.18049558804978
1143, 67.7126230409458
1144, 63.780793102950156
1145, 42.216054118713146
1146, 15.320197473934968
1147, -4.429330519648829
1148, -12.266320620340593
1149, 5.163896361887964
1150, 32.99880722583566
1151, 30.6212889202925
1152, 23.985404732338793
1153, 34.37644583071051
1154, 34.86117798972646
1155, 20.306421412001328
1156, 10.26965317390841
1157, 4.282637728198097
1158, -5.937567849538482
1159, -6.119522988421068
1160, 12.659003756586117
1161, 20.404102483403676
1162, 11.544457731263265
1163, 0.4614596376513873
1164, -2.659610062475622
1165, 15.446812808972936
1166, 25.046926370451274
1167, 9.945677073366369
1168, -9.62502486057565
1169, -25.746193102614598
1170, -27.182533424133453
1171, -14.244545970992476
1172, 11.97061391839361
1173, 24.90218618023482
1174, 14.499354183691139
1175, 15.834163396066288
1176, 32.35784897575104
1177, 55.407048619659236
1178, 70.75637165866056
1179, 66.76792259893682
1180, 63.928024913861464
1181, 65.45288770538173
1182, 52.70577927736076
1183, 32.073841968177476
1184, 18.949454878552388
1185, 6.0221408213656105
1186, -11.04157796186928
1187, -5.664999261367029
1188, 16.75748214559735
1189, 16.496142371631777
1190, 5.5837484929388665
1191, 1.9387513516617219
1192, -1.7487037543196493
1193, -6.736647961784456
1194, -2.0357445111717425
1195, 4.201988456771687
1196, -8.74385913128026
1197, -13.089795831479478
1198, 7.623850284241598
1199, 12.14841357263731
1200, -0.4329476883726784
1201, 4.525025342371464
1202, 12.954735828238427
1203, 4.488878721651417
1204, 10.072503447460349
1205, 35.449341025664125
1206, 36.98170497855017
1207, 20.539083284166736
1208, 9.905628061650532
1209, 4.482941958844094
1210, 2.964030178990015
1211, 11.575684941990403
1212, 27.572895602972494
1213, 34.69556247095852
1214, 32.257343111015416
1215, 20.904655474008905
1216, 6.4921249296398855
1217, -7.238091073873875
1218, -17.38345646972448
1219, -18.855861004786675
1220, -3.50775935222282
1221, 15.417501798689045
1222, 29.933823745972404
1223, 35.67952442497881
1224, 28.605637801458215
1225, 1.815666305988998
1226, -11.859319621196846
1227, 5.827286024252317
1228, 17.670135506857605
1229, 16.205496530186792
1230, 10.02042470740298
1231, -0.629816070920242
1232, -14.436924099612042
1233, -7.655668386587877
1234, 17.3411576952617
1235, 16.763863122724615
1236, 3.6480959352898026
1237, 1.1384293460710069
1238, -2.8772514551938
1239, -8.57526870065658
1240, 10.412685746842271
1241, 35.835851652504516
1242, 27.210014091608627
1243, 17.990614933833058
1244, 25.09597396947538
1245, 27.12881256818855
1246, 26.67049775882333
1247, 35.925669637706505
1248, 40.46044303699182
1249, 32.805141513102626
1250, 29.175303635110595
1251, 27.873427839212127
1252, 16.526203854706637
1253, 10.420179755124082
1254, 18.560660893722343
1255, 31.424952180219407
1256, 45.41215763135142
1257, 62.75170785795672
1258, 68.05818008617962
1259, 50.653935972429736
1260, 39.92169030010837
1261, 36.06875336027588
1262, 15.101011900765116
1263, 1.8499979410521519
1264, 16.364871344846506
1265, 32.203228136902
1266, 42.15458255524936
1267, 55.19039248677609
1268, 55.20383902014646
1269, 28.32373717986502
1270, 14.935939526735183
1271, 21.01096932142991
1272, 17.927717628204846
1273, 11.249915928151495
1274, 9.178129242647174
1275, -0.6072231698167343
1276, -15.028139620026195
1277, -9.335884795257243
1278, 7.323302128717842
1279, 24.394452813466614
1280, 38.28110078439204
1281, 41.97994446531311
1282, 15.838683690526523
1283, -8.737599076242986
1284, -3.534924036463508
1285, 0.03334337286378286
1286, -0.912660971695459
1287, 11.791368520214746
1288, 20.836674313773074
1289, 12.272137866736102
1290, 12.669310856000266
1291, 19.487132681999356
1292, 6.573964853566395
1293, -10.175036377600463
1294, -18.544463051658568
1295, -12.476662115740965
1296, 3.363050604765249
1297, 14.11113993097797
1298, 22.307929461240292
1299, 29.212245194235038
1300, 26.382598065389175
1301, 17.40298640283163
1302, 12.823161298936611
1303, 5.25227279008277
1304, -6.097926567412742
1305, -4.758663103064464
1306, 4.84962240622508
1307, 11.263069211981929
1308, 11.026333615423027
1309, 3.640522946838246
1310, -6.993898377721052
1311, -13.595651632077988
1312, -7.027276501587494
1313, 3.199340667888009
1314, 13.196453736869444
1315, 18.38212759734961
1316, 21.400760657228602
1317, 24.72336565428759
1318, 23.033380493211553
1319, 19.32923705942403
1320, 25.281515835930804
1321, 27.50008830877414
1322, 18.65204781377588
1323, 17.748953633920337
1324, 19.884066498622815
1325, 8.77821351183502
1326, 3.4063487546809483
1327, 8.098652011216018
1328, 0.18049481749858387
1329, -7.411505717085674
1330, 4.28216469857216
1331, 6.815514098034782
1332, -2.3625817374531835
1333, 4.684747047143901
1334, 8.143665323678306
1335, -7.905129752376524
1336, -2.0252405874985016
1337, 21.41175229820601
1338, 29.159955517388426
1339, 26.810780563779645
1340, 16.70918825515173
1341, -9.530706400699728
1342, -25.140044960480736
1343, 7.129900312804239
1344, 41.69829679183749
1345, 56.19021746758699
1346, 38.65251843668102
1347, 12.561852658613134
1348, 0.4232374934404106
1349, 3.8895819771119022
1350, 16.181949707129206
1351, 21.06263278728329
1352, 19.700494060284655
1353, 15.248085117743358
1354, 18.362224140853414
1355, 19.975522438032385
1356, 9.04900111120287
1357, 3.6956752229102676
1358, 8.55793792305667
1359, 23.859569583760276
1360, 25.194473482822104
1361, 2.922405127705588
1362, -9.178751491546791
1363, -9.94819747589554
1364, -3.808219637291131
1365, 14.70154487007676
1366, 36.33703975979006
1367, 25.55462151979691
1368, 4.3196054967488635
1369, -7.49983919352826
1370, -6.090705438365603
1371, 4.551205461450991
1372, 16.319217706837662
1373, 15.05148152548145
1374, 2.815218353086493
1375, 5.275214445046913
1376, 15.86915261804188
1377, 26.63396947978208
1378, 36.27066965820313
1379, 35.60834920643856
1380, 11.343585087609881
1381, 7.499458754181433
1382, 27.70260249906778
1383, 26.284236972884173
1384, 20.35367227763163
1385, 24.619357304143705
1386, 27.052256542979194
1387, 25.833523170134413
1388, 21.364462073988307
1389, 6.924677691652505
1390, -11.420481391452086
1391, -11.551286005336806
1392, 3.0407472603315
1393, 25.903980675893763
1394, 31.267311750891622
1395, 24.65234054998291
1396, 20.104025765569077
1397, 26.647646812546554
1398, 34.80721819253904
1399, 14.053146635975281
1400, -6.080170052678113
1401, -11.048588781727176
1402, -2.6419189192274644
1403, 18.056439941534336
1404, 48.26626144169359
1405, 58.90938256476238
1406, 52.25429896192418
1407, 45.04219493680239
1408, 30.516552582987515
1409, 11.287624966865224
1410, 7.261720400787908
1411, 7.491169988750698
1412, 4.666293904837403
1413, 7.611258646621991
1414, 7.325589748171296
1415, -7.149277336331124
1416, -8.970699421693553
1417, -0.5107326865954747
1418, -3.3172237076610145
1419, -4.821824736736744
1420, -0.4777892250885998
1421, 3.1759273376801502
1422, 14.00349986654146
1423, 33.53309427473005
1424, 32.29323564342985
1425, 18.545338899286435
1426, 9.870869803137793
1427, -2.364061994212534
1428, -11.944977074408598
1429, -1.1292646070842238
1430, 3.0070800901821713
1431, -4.677048834081688
1432, 1.4417351889305792
1433, 7.0832136889584945
1434, 1.5501603734219316
1435, -5.097210445338078
1436, -9.270564998671034
1437, -7.287735334351055
1438, 9.36045292742483
1439, 35.35728741513958
1440, 52.70924458992522
1441, 46.93842024587639
1442, 27.296991757930755
1443, 32.21111212383357
1444, 35.68892869204183
1445, 24.718411953634586
1446, 8.968654998951024
1447, -3.938383770235305
1448, -8.463047396120146
1449, 8.014121872406122
1450, 27.359899408830188
1451, 23.311306474594403
1452, 11.26173365733166
1453, -1.8433780057225704
1454, -10.125414760334024
1455, -5.316183410061967
1456, 10.3924096889059
1457, 22.578015576478265
1458, 19.099489008384808
1459, 1.399561362901295
1460, -5.905140232395297
1461, 0.3320686670131181
1462, 15.678581700231916
1463, 9.967448460254673
1464, -3.0048888614755924
1465, -7.09008819761948
1466, 8.197610440317021
1467, 37.89921819185429
1468, 67.26942797513402
1469, 69.2535184534513
1470, 45.92653238396724
1471, 14.08236059842011
1472, -6.102904093264442
1473, -11.36007224435798
1474, -4.220373859092888
1475, 15.184668247320133
1476, 40.20050467337887
1477, 45.794023779371855
1478, 51.211683678764985
1479, 62.713530821986296
1480, 61.61179397680053
1481, 43.045644515370896
1482, 12.545372077568572
1483, 6.965326420763631
1484, 15.959500960267178
1485, 28.208355133838268
1486, 42.92780383740592
1487, 39.88546574990414
1488, 4.587738411064038
1489, -6.159378886290597
1490, -0.43306253608261613
1491, -1.108590516948425
1492, 1.275127550560228
1493, 3.4607891377818305
1494, -2.7012100657857445
1495, -6.514966544034905
1496, -4.5429324488081875
1497, 4.120555777170011
1498, 16.630871691951597
1499, 30.240794191585792
1500, 41.71564966207279
1501, 33.24192111854836
1502, 6.709239796814472
1503, -15.0367887815014
1504, -14.751494229023592
1505, 9.043718832421291
1506, 39.35274312627871
1507, 33.265632900231594
1508, -6.147797281612384
1509, -9.939271666665263
1510, 7.307572335274017
1511, 31.590854039661735
1512, 43.42070423024688
1513, 27.72282730750203
1514, -6.714027436878041
1515, -1.2390717088242127
1516, 9.276408968229134
1517, 5.0915254961937535
1518, 7.413462232797883
1519, 8.265969318069438
1520, 4.9450025999171885
1521, 11.894670906887768
1522, 7.642608793687032
1523, -12.745542939908319
1524, -7.564235930017276
1525, 2.7956228561474745
1526, 2.9655254385083936
1527, -0.33684948108157187
1528, -1.8832043743745999
1529, 3.954082479189765
1530, 27.655244316105836
1531, 44.58322893343575
1532, 36.68142994897744
1533, 3.9468760891109014
1534, -12.73164356246707
1535, 7.329203190502994
1536, 41.60105522357708
1537, 50.387631034972856
1538, 20.02987757428218
1539, -6.26496524489221
1540, -16.73894582374487
1541, -9.815430948377525
1542, 5.510693227304728
1543, 11.031333295178229
1544, 1.2093533328147714
1545, -1.237560144256804
1546, -5.818640969273019
1547, -14.25200844397068
1548, -10.781519028106686
1549, 5.929595608768523
1550, 30.787817849172825
1551, 43.56172959186733
1552, 42.13352096932658
1553, 28.3720928038515
1554, 9.181719627502389
1555, 6.5162736493030025
1556, 13.757696235908043
1557, -3.872425037425728
1558, -19.036127959037913
1559, -25.631103832148256
1560, -30.39638535534823
1561, -24.437290436075273
1562, -12.560848008999528
1563, -7.961164168928917
1564, -0.937767227153472
1565, 4.3403375060293
1566, -3.318605904274591
1567, -27.29460497654327
1568, -47.986510015643944
1569, -39.5422887705472
1570, -5.50392571410157
1571, 27.622918691095038
1572, 39.46439321270873
1573, 64.94625861579516
1574, 116.92918123492973
1575, 198.92955727070785
1576, 273.32905858722415
1577, 327.6497304960967
1578, 365.919500022942
1579, 423.1014392386587
1580, 490.41767631609537
1581, 548.6835906337778
1582, 563.3121323158093
1583, 559.3987657916905
1584, 545.4746802835598
1585, 516.1094711372102
1586, 468.3846727814889
1587, 402.70814463662555
1588, 321.3890556493561
1589, 226.54730558023448
1590, 132.15893863658857
1591, 68.06934341877422
1592, 28.598222052946312
1593, 5.176523930871554
1594, -9.726482862557077
1595, -22.092888532582947
1596, -27.504134000732392
1597, -21.384568316259447
1598, -0.4983022699580033
1599, 3.337490929103751
1600, -13.596786732898181
1601, -25.07029189859486
1602, -22.625752821095375
1603, -7.920909822550129
1604, 9.402905311136692
1605, 1.6938142885210254
1606, -11.696042867763026
1607, -4.3738655035535885
1608, 13.683409135003785
1609, 17.75956577245006
1610, -2.5325301350853806
1611, -18.873026762489644
1612, -16.006321393232156
1613, 10.020875123409496
1614, 49.6380430397553
1615, 55.10191196295227
1616, 33.32152035713898
1617, 21.96258184667795
1618, 7.4778804223146835
1619, 8.947473581375561
1620, 38.65892393580225
1621, 36.105131640996206
1622, 23.39172389568148
1623, 17.251242594480118
1624, 4.22139201958862
1625, -6.147785524156916
1626, -6.71027720336906
1627, 9.160865148263838
1628, 31.155567458711175
1629, 42.157188866933666
1630, 28.042067957290783
1631, 4.684162582699628
1632, -5.773960717418959
1633, 1.531973888477296
1634, -3.313821302890119
1635, -7.9537979613965035
1636, -0.40894004789061
1637, 28.650143315019704
1638, 49.356892054238415
1639, 41.53514000757286
1640, 1.2605698785951063
1641, -6.947691425691119
1642, 2.82803050459961
1643, 11.922734206218138
1644, 11.877315505761999
1645, 1.1178253629168466
1646, -7.302355884703502
1647, 7.64071661451726
1648, 12.859239070246531
1649, -0.08674888342511622
1650, -22.388779163638446
##END=



