##NAMES=
##LOCALITY=
##RRUFFID=
##CHEMISTRY=
320, -29.096768381466063
321, -16.275493852717773
322, -5.218579921668606
323, 3.197290790209081
324, 10.954537212528521
325, 20.8296529633526
326, 30.22845820857856
327, 33.23091690567708
328, 29.70918256359255
329, 24.109448317042734
330, 17.652962633737843
331, 16.919889378885273
332, 24.479098416552006
333, 37.3381226326901
334, 48.30586701443826
335, 57.41829870161018
336, 64.81858635268236
337, 69.66267113115282
338, 66.67077082903415
339, 55.44766045631968
340, 45.76190212257643
341, 41.322135587724915
342, 34.74452020131503
343, 19.95347552279145
344, 5.332244182786781
345, 1.2456571134271144
346, 5.973737078400518
347, 13.835873996218652
348, 24.411454392768064
349, 30.847635355910825
350, 31.89825321690023
351, 31.342999760834573
352, 31.129361846567917
353, 27.42684084917164
354, 15.89853523639158
355, 1.8459431303117526
356, -1.8195029078160587
357, 2.6187485669543094
358, 3.1141877060308616
359, -1.205866164343206
360, -0.23958559340098873
361, 9.146811541312672
362, 11.555560397255249
363, -2.7026479682172067
364, -18.240143266525592
365, -15.179468386606459
366, -0.48197831309062167
367, 6.666794747506174
368, 6.003770257803808
369, 2.888008667446229
370, -1.2576013976295144
371, -2.7749276712838764
372, -0.4223082886574048
373, 5.528282569138355
374, 15.322194878162918
375, 22.674817875424196
376, 19.157339416688956
377, 8.334465757622638
378, 0.858106057358782
379, -2.4853732257342926
380, -1.948974024699055
381, 2.142927780199898
382, 4.031594702312759
383, 1.4150952624586353
384, -1.3659128802892155
385, -1.7463691260463747
386, -0.36652577485983784
387, 2.0609355343249263
388, 3.223290237748188
389, -3.3418284428535117
390, -16.45610724866583
391, -27.043190596758905
392, -34.02948323846431
393, -30.80966811584767
394, -15.038159795163665
395, -1.1709422012081632
396, 2.613870928250435
397, -0.04520830508590734
398, -4.892233053757991
399, -10.226547542066328
400, -11.49086171426643
401, -8.809886883747822
402, -2.8470356953212104
403, 6.019116500716336
404, 10.334500162440236
405, 7.75077111351311
406, 9.903405010411916
407, 22.148540484316072
408, 35.473967202469794
409, 42.57786052050051
410, 43.191129442464444
411, 36.83362149362256
412, 25.819370964769405
413, 20.4114358234483
414, 21.96702474571339
415, 38.943891300656105
416, 73.25475660391567
417, 101.55210077723223
418, 117.32821263095684
419, 127.805340541855
420, 137.47395484737808
421, 146.88608876839498
422, 156.7053962094251
423, 163.97061324805145
424, 162.10062254819513
425, 152.0473331234134
426, 138.62339683638766
427, 123.50868653196812
428, 116.00982951523929
429, 117.55916262868232
430, 116.67581237867125
431, 108.88070401179175
432, 96.54062793156027
433, 81.31866008897487
434, 62.396983183105476
435, 38.68870618053097
436, 19.797573974297848
437, 17.463057005432347
438, 26.814810238219252
439, 24.09680720261349
440, 9.010440691222357
441, -0.002756278291599301
442, -0.4422273508307626
443, -1.103545668024708
444, -5.369830900452143
445, -4.551527500957491
446, 7.617410713663958
447, 25.280042629678064
448, 38.849057581717716
449, 47.4438885226964
450, 49.19825375891469
451, 44.98881582339345
452, 38.360043481120556
453, 29.254953435087373
454, 14.958983828523742
455, -2.647769792811232
456, -12.148865063237281
457, -10.288770795423261
458, -4.834562122719035
459, 0.2975464799437759
460, 5.346043426074175
461, 10.544806496054662
462, 14.109153937590236
463, 13.882026895707895
464, 9.696212149173334
465, 1.1778758899017703
466, -9.701091022134278
467, -14.796093481017124
468, -13.745963902629228
469, -9.835077372717024
470, -3.493362016242827
471, 5.785492842466738
472, 18.798674119949283
473, 27.062849306398675
474, 25.333761776177198
475, 18.44416425966847
476, 11.939397324297715
477, 5.979097780905249
478, 1.4551985652506119
479, -2.2398500834506194
480, -5.981925722751839
481, -9.761347646531249
482, -11.777432630503426
483, -11.183238156580046
484, -1.017568225526702
485, 20.740579104534845
486, 39.94978764110783
487, 50.95469446856441
488, 53.32178669378027
489, 46.775447754240304
490, 32.02259568882073
491, 9.812375444785175
492, -7.929648557042128
493, -3.9919290943216765
494, 13.626252849519915
495, 21.399758638289313
496, 18.270547757177155
497, 5.587802368378107
498, -13.4896515140681
499, -23.031758518619426
500, -21.155720566133823
501, -17.829894703011632
502, -15.800513108311861
503, -9.045144646322115
504, 5.944362833057312
505, 16.197256713764546
506, 9.864686749089742
507, 3.1083286680259334
508, 14.426422039890895
509, 34.86859497101341
510, 43.02532275464546
511, 43.838731800891765
512, 58.126313199986726
513, 86.61150716636894
514, 115.06322812663166
515, 142.57616817077997
516, 170.30835880962786
517, 197.53101536831036
518, 211.04600509792544
519, 206.90927905263015
520, 192.64803721075532
521, 171.87075130553876
522, 148.58818135525598
523, 125.68050805008261
524, 104.16216076765977
525, 85.17122209726494
526, 66.16622309294507
527, 42.8075892607294
528, 23.61994237919589
529, 17.571569387432646
530, 20.69860996074567
531, 18.82534762933028
532, 9.264215324636098
533, -2.8113628870742104
534, -16.409036516973174
535, -18.996269861538167
536, -8.131554978143868
537, 7.178799496414285
538, 24.73006474016529
539, 36.46675886855974
540, 38.70376863961792
541, 37.86052394798753
542, 38.678274733733815
543, 39.71453656109588
544, 39.37043325430204
545, 36.94775285218657
546, 31.313352380313518
547, 23.364241852484156
548, 15.217084997698294
549, 10.696788140732679
550, 16.64242119003211
551, 30.97863414913445
552, 36.73747491091672
553, 32.77302069863708
554, 24.83169607409127
555, 14.625377330302399
556, 8.81575161546607
557, 9.628534749622304
558, 6.346259276934688
559, -4.0023959534537425
560, -13.392332558063572
561, -17.898981158652532
562, -19.01547024678439
563, -17.636679427839226
564, -9.652163423123966
565, 10.023454706253688
566, 32.37019251948732
567, 39.68455037457261
568, 36.80874680125271
569, 34.205241446783475
570, 30.197268072927727
571, 19.106107168122435
572, 3.2801466448408974
573, -6.544868163763567
574, -10.096557250278238
575, -6.545134306813452
576, 3.8428720280589914
577, 16.031484133902268
578, 27.50121513479644
579, 28.289818952385758
580, 16.15550410752894
581, 1.900024644268342
582, -10.033356714729962
583, -14.740197852381243
584, -9.676424803893497
585, 1.32198675563086
586, 16.455364261429168
587, 27.221706755354717
588, 26.109689330135552
589, 17.499771652680465
590, 6.744263281286294
591, -1.9377597257944217
592, -3.690986077753223
593, -1.0451278491727862
594, 1.1214991076749357
595, 4.628111239835562
596, 14.663198560177989
597, 26.63911444668156
598, 24.985315407740927
599, 11.719709318263995
600, 2.431079450191646
601, -1.4323348560519662
602, -4.759192340893605
603, -8.096739064380927
604, -7.2806703924334215
605, -1.4727159282119828
606, 7.126573255797666
607, 17.155050625810873
608, 16.33036864645328
609, 1.0406978830360458
610, -5.676597475679046
611, 5.485913434697977
612, 11.861573935627348
613, 0.35621820950291294
614, -7.388502444750884
615, 3.33245126433485
616, 13.582582246943275
617, 4.817961315312459
618, -5.8022066198918765
619, 0.054253268480351835
620, 13.391524006709005
621, 20.189580608386677
622, 22.33703994649295
623, 23.453008961376327
624, 22.017808417239394
625, 14.51613072676355
626, 3.40259357171999
627, -4.048351231363085
628, -8.215731733600478
629, -9.565848449135046
630, -6.987953623112844
631, 4.736939201382484
632, 24.78333324493269
633, 40.515326063279645
634, 49.708122424219255
635, 48.69900111752122
636, 37.694690978416475
637, 22.68188398467464
638, 6.063849946527625
639, -0.4858735386178523
640, 4.326913701864214
641, 12.091382380664982
642, 20.389281483243394
643, 18.46497903134332
644, 4.203172829178584
645, 2.9068143117810905
646, 23.675429446894668
647, 41.26172104136913
648, 44.02503173086734
649, 38.496688713345975
650, 28.284250582307322
651, 14.519409809080571
652, -0.5574529780033117
653, -6.2309170668768274
654, 6.035007044987651
655, 20.991367861928666
656, 23.686348000243015
657, 15.911633577290559
658, -0.5072029507291518
659, -12.023816706395337
660, -3.683288092004659
661, 10.659153441157287
662, 11.314202584174382
663, 5.151076948024638
664, 3.5360070877595717
665, 4.535067909107056
666, 4.911638544487687
667, 9.273292487402614
668, 27.218898799701492
669, 48.039706900882265
670, 49.53429337386933
671, 36.491838822672435
672, 22.71345169399865
673, 8.618434210431587
674, -5.534370539589872
675, -17.523641728402254
676, -17.42831641603425
677, -8.63785092200851
678, -4.1695615089183775
679, -2.7519065491278525
680, 2.885056211882329
681, 11.97997963787293
682, 16.243403101197146
683, 16.40473111385927
684, 19.39163014539554
685, 23.963518483536973
686, 20.213598554894816
687, 8.99152777825293
688, 2.4595945220589783
689, 1.6963259269414266
690, 7.214107799248268
691, 17.517843361918494
692, 18.699972686973524
693, 11.007361677794506
694, 12.208078386895977
695, 23.559429843516227
696, 29.963264152431293
697, 29.516220427198277
698, 28.646532382712394
699, 28.007185700479567
700, 21.849499851323344
701, 10.044306100280664
702, 3.709857673001352
703, 3.7150527483954647
704, 1.9564659556035622
705, -3.20146589378146
706, -7.0287305787369405
707, -8.004537188571703
708, -0.367258751341069
709, 16.86899565645581
710, 30.75791554656007
711, 36.68264546581304
712, 47.297869327814624
713, 64.43738241827486
714, 67.29338714120695
715, 51.077331513659374
716, 31.195318163937372
717, 12.334166355504749
718, -2.794740214326339
719, -14.31099854621607
720, -11.165632962558448
721, 8.972282092775458
722, 25.793632834740492
723, 31.71874764290169
724, 29.338913203744596
725, 20.03311186890005
726, 11.37926266872637
727, 5.518904605752141
728, 0.32346722599322675
729, -5.151479938174816
730, -6.260609829218993
731, -2.099655687260565
732, 0.46134010117566504
733, -0.01950277292235114
734, 2.6845048915538428
735, 9.796992155789667
736, 10.061418791813594
737, 1.1907626791353323
738, -6.024457065656861
739, -9.16381008557073
740, -7.445501455888916
741, -1.0991503871582609
742, 3.0399098882735416
743, 3.149821084120049
744, -0.027816957820505195
745, -5.975516103344489
746, -12.167070569835232
747, -16.71349500280303
748, -4.540057919492938
749, 24.667621749097634
750, 32.79709884253498
751, 15.311134079736803
752, 4.887926137772411
753, 6.707661905441455
754, 4.255694367259821
755, -2.809844321724995
756, 6.945534908508307
757, 33.20684601543053
758, 40.922548682108754
759, 28.185772582721256
760, 18.87479721298132
761, 14.607886827076982
762, 3.3516805663666673
763, -12.759261370315471
764, -17.648687878893725
765, -10.713003086545541
766, 2.8731089303855697
767, 21.162722566411503
768, 33.13104202951217
769, 37.52657515567171
770, 34.050044817092385
771, 26.57657771022059
772, 28.549378502540094
773, 36.31753454810041
774, 34.925931262680024
775, 25.990377551579513
776, 17.144621841168373
777, 9.273041097704663
778, 4.377693792523132
779, 2.891818767341647
780, 6.664206727855344
781, 12.451618298231551
782, 11.974288384168176
783, 7.904341015929276
784, 6.353944013936598
785, 10.374824290925972
786, 25.39545479809749
787, 36.479838292910244
788, 23.635582643508315
789, 3.043834513327056
790, -4.57099843908054
791, 1.1937232573973233
792, 22.103304458041748
793, 42.759478961963396
794, 49.02924564165369
795, 43.409356949280664
796, 27.974166126576165
797, 13.334825033240122
798, 8.028035071813065
799, 9.573928385388172
800, 16.728739082986067
801, 19.177924185777556
802, 12.551504577036212
803, 5.411094995791245
804, 2.151298539007257
805, 5.19633927785253
806, 14.747711309844817
807, 15.278195838820466
808, 3.873209210530149
809, -0.4559656675928636
810, 5.874427670265504
811, 16.00249568857089
812, 26.72012626943615
813, 31.688686109398077
814, 31.025928708352694
815, 31.554669183088663
816, 32.35406655327006
817, 24.958968135278155
818, 11.21662201127674
819, 2.5005759974192188
820, -2.417404894408719
821, -7.8457660991534794
822, -11.219964755186993
823, -4.6281939051596055
824, 9.558301687413405
825, 25.883700849076376
826, 35.87311486657927
827, 27.481434618768617
828, 13.852746021862913
829, 12.664163637197817
830, 13.274719790740164
831, 4.41557179350275
832, -3.66233500972794
833, -3.733074621378364
834, -2.1619048799257143
835, -2.8630293449441524
836, -2.0303359567978987
837, 2.1281873462885414
838, 2.669810330880864
839, -2.391124795009091
840, 1.7777611553601673
841, 19.189856211468395
842, 34.21634477853786
843, 42.36714387256052
844, 40.39866606663327
845, 27.863252508397636
846, 5.950651504608686
847, -18.13065388376799
848, -19.40508377848073
849, -3.3381208624987266
850, 3.894069156976002
851, 6.163231684430684
852, 17.32639792806549
853, 28.454715298836163
854, 21.73096838080346
855, 6.255665078194397
856, -2.7708046492462017
857, -6.973868724720887
858, -7.779326424711144
859, -6.726572721397133
860, -4.916329650307489
861, -0.25632260683232744
862, 8.760471451266312
863, 16.836942556284157
864, 21.372659451184518
865, 21.421827278875753
866, 16.913512356699357
867, 10.771575038271294
868, 4.22790568252185
869, 0.8920291562499187
870, 0.41458144203443226
871, -0.6250809874372862
872, -3.1056383882123555
873, -8.383638630101814
874, -13.499610108137858
875, -8.981943272700846
876, 1.48152875273081
877, 9.226559718827048
878, 12.663776563796091
879, 10.063340129599965
880, 11.131561753202732
881, 25.271784774926346
882, 38.05213431883112
883, 39.579041881230296
884, 36.652239760865996
885, 33.2017787488694
886, 34.15075991415779
887, 40.76937456725864
888, 45.45640891411222
889, 45.36479105149556
890, 35.447096594257346
891, 16.91773971433213
892, 2.369013174688007
893, -5.52947020139618
894, 1.5654351284665609
895, 17.323843783110533
896, 22.558576815532433
897, 18.04529459163132
898, 6.604897238758895
899, -3.240606566258066
900, -3.1665551439136834
901, 2.609326271786813
902, 11.30832098452629
903, 25.65471687925765
904, 44.57436471042911
905, 49.39635004910997
906, 35.532907448306105
907, 30.031382962226417
908, 37.10547816340659
909, 37.63712778813169
910, 31.350564573616793
911, 31.477683054794397
912, 33.892610836927815
913, 22.483573464041
914, 3.860392925623273
915, -6.617379869041542
916, -9.586877584446484
917, -5.334800363146314
918, 0.8005160453531062
919, 4.487638708825216
920, 5.273552920355542
921, 2.8757374598808383
922, -0.9722121447493919
923, -4.55395823091294
924, 4.992987762600933
925, 27.357872737788057
926, 34.97223855074844
927, 28.73413209876162
928, 28.530166783392815
929, 32.37095024001337
930, 30.619909273091253
931, 29.343898913560224
932, 39.19358281942368
933, 44.711542774977715
934, 29.87798057571672
935, 13.79062865083506
936, 9.830857439387728
937, 6.428600318656208
938, -0.662024679152637
939, -2.9373691570763185
940, 0.3076808059377072
941, -0.5310757946499507
942, -4.211072255570798
943, 0.48002763552449323
944, 12.602758531385007
945, 25.896695770915358
946, 32.931393881903205
947, 22.55569359269157
948, 9.930347838448142
949, 10.407559821888754
950, 11.145406931088473
951, 5.575815308146048
952, 0.8704804078752204
953, -1.4730941952839203
954, -5.864864785239661
955, -10.850309897682564
956, -2.8239660315421133
957, 13.473611046583756
958, 15.805082781604142
959, 10.174818920716461
960, 10.800908053171042
961, 13.51285083309449
962, 13.152190583234187
963, 8.641841089699483
964, -0.1949557234547683
965, -1.3031415679461134
966, 8.523229447907397
967, 13.478994293958749
968, 10.129543910577922
969, 1.4343635359773543
970, -10.053351918390035
971, -19.338532755394226
972, -22.021517865588066
973, -9.158265475472035
974, 6.231572921395127
975, 9.104028184508024
976, 9.1876006900211
977, 12.249134189778488
978, 10.70754721848698
979, 3.210442423484892
980, 2.7447967170073753
981, 10.30401833653741
982, 17.535244108552433
983, 22.286075645612073
984, 21.468603025368793
985, 16.975802020349875
986, 12.004969739776243
987, 9.038434606080955
988, 10.874692324634452
989, 8.887772373523148
990, -0.01095660155351652
991, -7.100275342807436
992, -9.870912629343366
993, -4.582623749976847
994, 7.166859486939757
995, 17.625448074554697
996, 22.062201535452004
997, 14.267989533275795
998, 13.430003803277032
999, 37.421271052479824
1000, 57.55138126956808
1001, 59.382995430076335
1002, 57.470312731327795
1003, 54.90740702423227
1004, 41.41893918677124
1005, 19.45661066985849
1006, 5.640063043669215
1007, -2.3128414610437176
1008, -9.32754697836026
1009, -10.336403284536573
1010, 0.6319086538142074
1011, 18.649489651904332
1012, 38.6607838613545
1013, 39.167746236408675
1014, 18.18581412484673
1015, 4.3938550792781825
1016, 1.182886640016477
1017, 2.363759440270769
1018, 10.936591656693054
1019, 33.58461707305287
1020, 48.101753932487554
1021, 35.692375119556345
1022, 19.234441096193223
1023, 9.189543450116616
1024, -0.8258705355074198
1025, -10.08795501840359
1026, -1.7006115116964793
1027, 17.117039894281334
1028, 19.602676731461543
1029, 17.09515868584731
1030, 27.027313984298416
1031, 33.09708349682933
1032, 24.77699270809262
1033, 17.810478115670776
1034, 16.27121013667056
1035, 7.970019390819289
1036, -4.450078962871885
1037, -7.759547261247462
1038, -4.513714250678277
1039, -0.6906960226870069
1040, 4.5120354299369865
1041, 11.836481421612916
1042, 12.320704287616536
1043, 3.9806756753423542
1044, 5.517612838008063
1045, 17.245869123680677
1046, 20.49189168965586
1047, 17.323122845003127
1048, 16.694330071927652
1049, 8.73280225104827
1050, -16.90249360564394
1051, -25.1734475162948
1052, -1.313341299151034
1053, 12.141396301164605
1054, 5.796385258265218
1055, -7.007728212211077
1056, -20.706667998005287
1057, -25.898502268701122
1058, -24.06713295724512
1059, -16.913831713287436
1060, -14.664667153982009
1061, -22.67533415538128
1062, -35.38427999490432
1063, -48.147389368648874
1064, -42.5890806255984
1065, -21.499436366520058
1066, 3.431272393715517
1067, 29.28393630489336
1068, 53.45883006776148
1069, 93.05882081320851
1070, 158.41319092193862
1071, 240.80524162273286
1072, 321.540457659823
1073, 405.6994721000128
1074, 486.5335830442864
1075, 548.5751476516316
1076, 590.5491801072694
1077, 611.660157905786
1078, 611.1355792716449
1079, 589.5508309451798
1080, 554.5857951328653
1081, 510.7304085946362
1082, 467.98958550332554
1083, 419.5426174913782
1084, 352.1174884795555
1085, 276.74407111714663
1086, 202.08576293407805
1087, 127.1617337206244
1088, 65.84050163890606
1089, 20.865604336306205
1090, -9.064393985524475
1091, -22.23700688082863
1092, -25.43040084963377
1093, -26.242537990488017
1094, -25.520720164605336
1095, -23.556453060710737
1096, -19.645106326288442
1097, -13.734893114799888
1098, -7.16853387393985
1099, -4.833327744648159
1100, -16.530673793910864
1101, -26.092108977782118
1102, -20.512807780231924
1103, -8.038736336799047
1104, 7.123972151140151
1105, 12.963904111195006
1106, 8.405986556700555
1107, -3.8708622432595803
1108, -12.294721734488121
1109, -4.420995949001735
1110, 3.551650944438734
1111, 5.6791431729006945
1112, 16.80922814673704
1113, 33.97862591910962
1114, 37.981994822279376
1115, 32.449404360924746
1116, 25.34147476893486
1117, 21.749739334534752
1118, 23.747342750633834
1119, 18.92789472964796
1120, 6.932447039152976
1121, 1.5380037407412601
1122, -0.4550739883625283
1123, -6.728503101437127
1124, -4.872906227267777
1125, 12.980617674705172
1126, 13.32258626062685
1127, -6.609875895618643
1128, -6.213233473806213
1129, 10.998910919493028
1130, 27.817223645160993
1131, 34.12943990308213
1132, 23.379410706498675
1133, 7.176834993570992
1134, -6.554930702933234
1135, -3.3025764178055397
1136, 15.010695203786781
1137, 39.91881954471319
1138, 57.57780248070412
1139, 57.47087291781645
1140, 46.75321834506667
1141, 32.37880630641121
1142, 40.89539016836261
1143, 58.94289129293611
1144, 55.64137432411644
1145, 44.11509184228544
1146, 36.75946312391079
1147, 23.509134847403402
1148, 4.253829658021459
1149, -1.408716480392286
1150, 0.5950436524753968
1151, -7.0451367509931515
1152, -11.295390449549814
1153, -1.536525157599499
1154, 6.339883563936382
1155, 7.937933294771938
1156, 9.157727787891417
1157, 7.793056294533017
1158, -1.8157539406129217
1159, -7.787249079408866
1160, -2.9243014079265777
1161, -1.5756517024433379
1162, -4.458227031592287
1163, 2.5743625884501853
1164, 11.556924713067474
1165, 5.8710138977021415
1166, -0.1400801002823755
1167, 1.5001644331828174
1168, 2.794714080349422
1169, 3.216324700127643
1170, 7.115331525865258
1171, 9.077255346115635
1172, 2.423525169775985
1173, -4.188370987342751
1174, -6.829314639525819
1175, -2.015458748884157
1176, 12.210007511502226
1177, 39.205711722107026
1178, 58.25603040128681
1179, 52.40162181830419
1180, 41.32081886041806
1181, 32.61457494951492
1182, 29.259495307543602
1183, 29.81683514770748
1184, 30.983824350501436
1185, 25.807940205167597
1186, 11.176964888594739
1187, 0.23540648735934155
1188, -4.26320336783283
1189, 0.06178133337789404
1190, 2.432002634937362
1191, -9.45090572242043
1192, -14.263842987315456
1193, -6.549040307780615
1194, -5.6897081738407
1195, -9.516761946784754
1196, -7.9104152037330095
1197, -2.842287718521675
1198, 4.224423683624991
1199, 11.632939266387893
1200, 16.310227621705963
1201, 11.550222340941673
1202, 2.6587956835646764
1203, -2.5386999122056295
1204, 5.718761843930679
1205, 28.221486139510034
1206, 40.4581927135423
1207, 40.80974545349363
1208, 33.12513602641593
1209, 21.0014030585221
1210, 7.574522468757095
1211, 1.035017713435991
1212, 1.975762868593847
1213, 8.887209952356443
1214, 12.055045476636224
1215, 2.8129673046673815
1216, -0.24459560612376663
1217, 5.100740550823957
1218, 1.7083195435657217
1219, 2.7268727094115093
1220, 31.198515798318113
1221, 44.47110179058973
1222, 27.395527663099983
1223, 23.682334970224474
1224, 25.43066989483441
1225, -1.203187082212935
1226, -16.15947173901759
1227, 3.5289160511588307
1228, 8.897473343119145
1229, -2.1785519428603948
1230, 2.551356661544105
1231, 7.528929143489222
1232, -3.9768449828775374
1233, -8.756072223962747
1234, -3.6346143422010755
1235, -4.6563046751084585
1236, -7.64142366454098
1237, -5.1796412916851295
1238, -1.6290267893241435
1239, 2.4182652906511066
1240, 12.626287611061343
1241, 24.301272285946652
1242, 28.688992313704148
1243, 24.42262154130276
1244, 13.33628149624883
1245, 12.555645122517035
1246, 20.301056696324395
1247, 26.13561447147049
1248, 31.080459332198643
1249, 35.08802951401685
1250, 31.22271467536484
1251, 22.022733145646725
1252, 17.153743341407335
1253, 12.042385065585222
1254, 4.872146987290307
1255, 2.0831987852216116
1256, 4.041267799639172
1257, 7.842488950663665
1258, 14.480531660763518
1259, 25.178491817873237
1260, 37.15924581011677
1261, 47.784754302276724
1262, 50.20073265986639
1263, 42.06302217278608
1264, 23.065924598505717
1265, 11.537672491246212
1266, 10.53420920444114
1267, 8.390420371033997
1268, 5.162261116483478
1269, 1.800662138986354
1270, -0.4491875464095756
1271, 2.0678180205432
1272, 20.866669602534785
1273, 34.655124279880056
1274, 22.311563519209358
1275, 4.782976617967051
1276, -8.402490501325246
1277, -10.481499591177453
1278, 2.171597536299032
1279, 31.431380885254384
1280, 42.60831676582529
1281, 32.31865216027563
1282, 23.871029870850634
1283, 18.376676941167716
1284, 15.17398755928889
1285, 15.351612501813634
1286, 16.845177394833627
1287, 18.384655453233336
1288, 17.24609803399835
1289, 11.387799127249764
1290, 3.8751924311236507
1291, -4.753174994214987
1292, -17.096311208442785
1293, -12.123076016443065
1294, 22.75950276952335
1295, 40.49778522887618
1296, 33.15993799650778
1297, 9.10571741138483
1298, -9.222179384300489
1299, -9.60015571871918
1300, 6.261703557311648
1301, 25.062091684750612
1302, 17.07204434576761
1303, 5.900733777427831
1304, 5.116941432149815
1305, 9.836520499674407
1306, 15.167640250155728
1307, 15.042231887939124
1308, 7.754222325004321
1309, -3.4609343390193317
1310, -0.8409050149448376
1311, 5.782968463598991
1312, 0.971234567796273
1313, -3.796971012634458
1314, -4.348075486104335
1315, 1.0406229775676366
1316, 2.2973178990482666
1317, -9.069853667174357
1318, -12.890373158144484
1319, -6.730514236906856
1320, 2.0166396259023713
1321, 15.843041561849077
1322, 33.603503095465385
1323, 37.953861088305075
1324, 32.75015492115472
1325, 31.93993292892128
1326, 30.07383739009174
1327, 23.777291922620407
1328, 11.003913270032626
1329, -2.2853403868853093
1330, -9.851596964709188
1331, -1.7994621857328639
1332, 21.238316315054817
1333, 42.06268225022177
1334, 48.19093255371172
1335, 32.435044749844565
1336, 18.526310294770155
1337, 12.444761755606578
1338, 15.85963983198053
1339, 15.175176081634618
1340, 4.309631150299992
1341, -10.959171244685876
1342, -18.99103243189529
1343, -4.2640889908648205
1344, 9.443559064412057
1345, 16.219129151999823
1346, 21.909072100959747
1347, 27.846605065451968
1348, 33.86497633040835
1349, 32.86612737477935
1350, 23.74285094731158
1351, 7.775506478571515
1352, -3.968502494907625
1353, -7.168705734272407
1354, -0.9171939282018684
1355, 7.227111551335838
1356, 9.084206608015847
1357, 16.90316910997899
1358, 31.479068032440864
1359, 47.4599973707318
1360, 40.98203539000224
1361, 5.20978488106357
1362, -9.140464004806745
1363, -4.812085862434287
1364, 4.664849908726865
1365, 23.568935898116706
1366, 39.017852514285096
1367, 8.48582902048247
1368, -16.915521153071495
1369, -4.540450239685924
1370, 8.866159875515223
1371, 17.40259817447759
1372, 19.825133422124054
1373, 8.320410749402981
1374, -7.730153795358092
1375, 9.567178676853018
1376, 31.969674380933156
1377, 35.04172836866837
1378, 45.28936973551663
1379, 55.25597697099283
1380, 43.74725145932143
1381, 26.99811907607227
1382, 10.96507906385159
1383, -5.669457047741162
1384, -1.9782768172963188
1385, 32.66762039560581
1386, 44.48622323024483
1387, 30.008485371894494
1388, 1.7218590891511667
1389, -13.762901794982099
1390, -9.22391315856521
1391, 12.528283145936712
1392, 29.555990713713527
1393, 27.382203432232018
1394, 26.798423455795273
1395, 27.183159868879102
1396, 23.43185854862668
1397, 21.660996836648792
1398, 20.173029729983227
1399, 10.044730525443356
1400, 5.980083815765738
1401, 10.631762277267171
1402, 0.48167251624818164
1403, -7.7463090427063435
1404, 3.4058299045136664
1405, 12.635053699446416
1406, 17.933309784682024
1407, 25.69857795142434
1408, 16.69497147442553
1409, -4.167161110346115
1410, 6.308690617486263
1411, 20.536054406284165
1412, 17.372855648478435
1413, 15.420173939305187
1414, 12.615853311574938
1415, 4.077349481317924
1416, 12.762340312581728
1417, 30.933863517341706
1418, 27.73564746796228
1419, 8.396555248189543
1420, -13.708231680017434
1421, -5.895579209300649
1422, 3.914687464583494
1423, -3.5975389823956903
1424, 4.011676036929202
1425, 19.30571993951844
1426, 24.11768533333725
1427, 34.45435430585758
1428, 40.152650950968564
1429, 10.364148504152126
1430, -6.342353488902063
1431, 5.742109575221093
1432, 30.5184385444104
1433, 42.376917623823374
1434, 26.940327954532222
1435, -1.2278325864658655
1436, -22.349163678978584
1437, -19.576914908375784
1438, -8.120342745095968
1439, 2.085222039107066
1440, 0.020553610595015925
1441, 5.598871095816776
1442, 20.973562951742224
1443, 29.503368839655195
1444, 27.52482892790067
1445, 15.522079096470861
1446, 1.5332268082302107
1447, -2.583419926458191
1448, 9.087423142625084
1449, 22.43597006137088
1450, 27.470442443135653
1451, 17.90590936506078
1452, 10.474353549777788
1453, 4.997394930569499
1454, -6.785616299860067
1455, 5.075463658662102
1456, 37.13302179495713
1457, 50.07236553741404
1458, 57.24736621908687
1459, 58.13137881435114
1460, 25.371339229921887
1461, -3.001501552026639
1462, -3.286715641646424
1463, 8.031452399984573
1464, 23.11156122761213
1465, 32.3865749759093
1466, 20.257785091891492
1467, 3.62938866383638
1468, 7.181706230818236
1469, 15.505641405530241
1470, 19.60861503068918
1471, 12.310318724874378
1472, -3.062708099213978
1473, -13.426456627849348
1474, 6.3080778941480276
1475, 20.066231450562555
1476, 18.538626179076346
1477, 24.891000493102638
1478, 23.069489444378178
1479, 8.991525652005748
1480, 3.6811701201527285
1481, -0.9225965784921755
1482, -6.6114860485949976
1483, 9.86036377686014
1484, 32.84873872450953
1485, 43.667747972624966
1486, 41.628588298113755
1487, 28.09439950752312
1488, 7.666058847576096
1489, 3.1370391211285096
1490, 4.587150686447785
1491, -4.191174074210721
1492, -3.7708658330384424
1493, 4.010081622538564
1494, 9.724632026682684
1495, 21.559238543728952
1496, 28.958674817035444
1497, 9.824392892526703
1498, -0.4074678965430394
1499, 2.947568326914734
1500, 3.74075945087543
1501, -8.264698924709137
1502, -24.232361958701404
1503, -12.700104586573616
1504, 7.750997654504772
1505, 29.069748401061133
1506, 47.63345650573228
1507, 43.56255422439426
1508, 20.678256598605458
1509, 19.264597164958104
1510, 15.682873563335306
1511, 2.559519483733766
1512, 2.449375632880674
1513, 4.574568885760073
1514, 2.5960879994509014
1515, -1.1023723663970486
1516, -9.723892668544522
1517, -18.944763757128385
1518, -2.800927613415297
1519, 22.188806006426148
1520, 38.47271401631906
1521, 29.3440045003631
1522, 11.375783597386544
1523, 0.45949987594167396
1524, 4.715373135780283
1525, 17.74266321776986
1526, 28.585538244684358
1527, 16.352843964453314
1528, 9.3520180346286
1529, 20.867330295538068
1530, 9.98842047205153
1531, -3.664383495268794
1532, -5.725275237998176
1533, -6.3827541817558995
1534, 1.442690214380491
1535, 16.547325687409284
1536, 7.136854335353746
1537, -4.73987727529493
1538, -5.141676038712831
1539, -5.18133651929611
1540, -1.8923142294393074
1541, 2.330818469316455
1542, -11.836825955677341
1543, -15.246230260246648
1544, 1.9488749618685688
1545, 8.011015285187568
1546, 16.53878175419777
1547, 27.79817951340101
1548, 16.80675728666847
1549, 16.352192342224953
1550, 36.331948360740626
1551, 46.15887080770926
1552, 48.596444710599826
1553, 41.02802772140285
1554, 11.78071094471079
1555, -10.62283353522389
1556, -19.454793610231263
1557, -21.955147299288
1558, -11.424156492036673
1559, 3.5091623062253348
1560, -0.411066926868898
1561, -10.864575735212384
1562, -19.222083643460337
1563, -17.651878076288085
1564, -15.172074671095743
1565, -16.411463167878537
1566, -23.47349997224046
1567, -24.022310635396934
1568, -11.517578630332537
1569, 13.271246684427751
1570, 7.734743160388007
1571, -4.493745930762088
1572, 9.200473766833511
1573, 51.22440655227592
1574, 100.82689135461578
1575, 146.72184302645428
1576, 197.5240751210813
1577, 253.90910157856342
1578, 312.46178549030265
1579, 364.2719627353449
1580, 389.81535136991397
1581, 397.1701025476832
1582, 432.37099610577934
1583, 444.19295163713923
1584, 414.7678879731502
1585, 354.86494863164944
1586, 295.29893761475705
1587, 240.62481364838686
1588, 182.32610760740272
1589, 117.48089370034631
1590, 62.645483270701334
1591, 21.894113304940674
1592, 8.983706383084154
1593, 7.383125119416945
1594, 0.8063549030866852
1595, -11.331865825213299
1596, -22.316942117758572
1597, -28.99280983123208
1598, -34.161985947944686
1599, -26.845130694046475
1600, -10.33443890153194
1601, -3.89071560751745
1602, 9.277695808019871
1603, 23.921462626226912
1604, 21.868256064468824
1605, 8.864537102498161
1606, -6.444325134595601
1607, -14.721849798409949
1608, -7.58446606180496
1609, -2.189925336082524
1610, -8.524396970835369
1611, -11.351148799581551
1612, -4.455279631758003
1613, 11.420544065736067
1614, 27.543908491676575
1615, 40.19680169947969
1616, 46.11849837467071
1617, 41.722362935419824
1618, 33.2846931634831
1619, 26.205532406171187
1620, 25.105316937258067
1621, 31.362115167335105
1622, 28.12091549599336
1623, 11.25881741340254
1624, 6.360274610549823
1625, 7.767100652666613
1626, 11.693808896508926
1627, 14.522620976727012
1628, 3.5981018315437723
1629, -9.684155113793622
1630, -9.434200954419794
1631, -6.31959139116816
1632, -4.931113513860055
1633, -6.156572683884406
1634, -5.026387917305328
1635, 6.064961789037625
1636, 24.53992252616399
1637, 34.56471437004075
1638, 35.52505016268469
1639, 28.447747484231513
1640, 15.783498388475437
1641, 3.9050112363515836
1642, -0.3108502131244677
1643, 3.755442114030757
1644, 6.896920138854966
1645, 8.470069650020378
1646, 6.345975302458555
1647, -2.707858992803267
1648, -7.545653835667963
1649, -8.673860439177588
1650, -10.92822719210153
##END=



