##NAMES=
##LOCALITY=
##RRUFFID=
##CHEMISTRY=
320, -1.7666481652004222
321, 7.342792532967906
322, 15.773699438473159
323, 20.968551010526426
324, 22.46949536098873
325, 19.472791923212753
326, 15.429773770630163
327, 25.244475941580276
328, 45.77879373442647
329, 48.753983219865404
330, 27.53137230651828
331, 5.038519123409969
332, -5.639204469632205
333, -7.86362361241936
334, -4.758723967738661
335, 2.379609823282408
336, 9.864177515623851
337, 17.31273559940928
338, 18.311776267732057
339, 12.592682717601747
340, 14.077144904232227
341, 27.722796999298225
342, 43.322485843228606
343, 53.636324214196975
344, 55.17777551886684
345, 41.49126568772135
346, 16.70397989166031
347, -0.8065263499156572
348, -10.707767652932489
349, -10.304476749679452
350, 1.0742500343376378
351, 13.805056379156667
352, 23.614814929159365
353, 31.66881447621654
354, 40.84965912307871
355, 47.14089278822303
356, 40.901630750585355
357, 24.269294441989587
358, 10.17063416786641
359, 1.3645088496577955
360, -3.732948125745679
361, -5.846916112497638
362, -5.104194351753904
363, -1.3769435268695815
364, 1.0977093635137862
365, -3.744175197156437
366, -12.941868808843537
367, -17.68960523275564
368, -17.3405306341474
369, -8.64823981639529
370, 9.168855540420736
371, 28.295097762213118
372, 44.45789838028304
373, 50.35221179688142
374, 40.94306119533394
375, 24.35593188110124
376, 12.53969305573628
377, 7.839063715053271
378, 12.663199403426006
379, 25.610818656886295
380, 32.90664952217321
381, 32.49964592944889
382, 25.167780918008248
383, 11.274373925000873
384, 2.41876570938075
385, 4.805905963007717
386, 12.441999364651565
387, 16.04141816428637
388, 14.100218010933531
389, 2.6448952389791884
390, -15.447425303211276
391, -26.33456072730405
392, -28.831171368685318
393, -24.6329333349031
394, -13.916000207461366
395, -5.0932842448664815
396, -2.9401766975352075
397, -2.516488126278091
398, 1.9364293160824673
399, 7.625754474355745
400, 6.751599621391506
401, 0.433368877198518
402, -4.862013000454681
403, -9.035274930539344
404, -13.909456720277376
405, -20.020604885348803
406, -18.471184370434457
407, -4.60570913961692
408, 11.774045028782893
409, 22.118778145204487
410, 33.387909458906506
411, 57.280329290179
412, 92.49806319077379
413, 120.44945300232484
414, 140.51967977868117
415, 155.2931246127955
416, 165.28565558952323
417, 171.33296555712786
418, 173.80845151573158
419, 179.40681062876683
420, 192.29050553422803
421, 208.52897998796834
422, 223.39692236062638
423, 234.84976639031447
424, 238.36753946391673
425, 234.4998059020745
426, 226.13138597638863
427, 214.29150492306144
428, 204.7355801712938
429, 198.3731039452905
430, 188.58022664881628
431, 172.73746597448462
432, 147.4871730019977
433, 110.4700238288442
434, 67.9937843302996
435, 35.241916250787654
436, 11.616498666150619
437, 0.9992270071670646
438, 0.2259400803295648
439, -0.7603484778665006
440, -3.0324748738121343
441, -5.669613532651965
442, -8.640398938842736
443, -11.377613139825371
444, -13.766683674018168
445, -10.134692875611108
446, 3.8935673693285935
447, 20.659810447188647
448, 28.46894623093158
449, 32.06082298835463
450, 41.86281366055209
451, 54.90522278796834
452, 58.63891752769541
453, 52.722743054803686
454, 43.05158074060728
455, 31.15563112401651
456, 23.13746261117103
457, 23.2863216104588
458, 29.260622685209455
459, 37.409432754462614
460, 42.218007351474625
461, 38.25974096609207
462, 27.41402407888836
463, 12.923945045296023
464, -0.37508428678211203
465, -3.7444795567416804
466, 0.25017304555240116
467, -2.0692732981888184
468, -11.85865652481607
469, -21.221706014820484
470, -28.488998629958132
471, -24.40800611007944
472, -4.758305730009852
473, 12.711769435158203
474, 15.394757017265874
475, 9.01315782718848
476, 0.13325358137626608
477, -9.185616276966812
478, -15.966633670916053
479, -17.242362007207248
480, -2.0727199102379927
481, 26.50726676780505
482, 40.98740021885078
483, 38.74018548348158
484, 32.194194412903016
485, 24.48400083685192
486, 17.40417889769742
487, 11.721361701252135
488, 13.102685593783463
489, 24.543524294196686
490, 32.33730545718572
491, 23.347415150359666
492, 6.83084131560463
493, -0.4615452817715777
494, -1.0800909126455736
495, -0.8610978832857654
496, -0.4084685446041476
497, -0.9660425287429462
498, -3.2068992664417237
499, -10.766793791607597
500, -24.060017154581146
501, -30.216386942556255
502, -25.44064708559108
503, -13.629708128749371
504, 4.197485233761654
505, 20.627027545407145
506, 28.083443973585418
507, 31.025020523627063
508, 35.08502992263766
509, 38.08372972095731
510, 35.695529186093154
511, 34.86966984069113
512, 46.01661446566595
513, 69.85067744112075
514, 96.62205952865133
515, 124.90804625685541
516, 148.8630794959863
517, 166.7153136338975
518, 170.724125838723
519, 158.80345007320375
520, 142.50257532413434
521, 127.34925162906165
522, 118.15182646940593
523, 118.36323881547378
524, 118.29102768729899
525, 107.06127585440663
526, 87.53096749754604
527, 64.59177444541092
528, 40.30705984156066
529, 23.70764350269019
530, 14.237486774421996
531, 14.153970411272894
532, 21.140418650851643
533, 19.04897746908955
534, 7.039078412694835
535, -0.9275853678691419
536, -2.554172158484107
537, 0.760749055541055
538, 8.70145080562861
539, 14.062992934184877
540, 11.966321092481849
541, 11.008908644581425
542, 18.64182938748445
543, 28.157944745986697
544, 33.34349509822323
545, 33.28311421087665
546, 26.495611559453664
547, 14.014339733409997
548, -0.31513933364885816
549, -11.992601079635278
550, -3.0015095570001904
551, 22.923356202345076
552, 37.083510895879044
553, 36.815028852277464
554, 29.556490381817184
555, 17.569250537903827
556, 9.97887603639947
557, 10.196704457289343
558, 16.0067556502122
559, 25.21247983157764
560, 24.03895120540983
561, 5.17152860078113
562, -12.255128625915859
563, -15.98446381321719
564, -11.484538301452176
565, -3.7967604585360277
566, 6.008279376225801
567, 16.11686034755212
568, 22.535023112948693
569, 18.246805820138434
570, 6.923921142924883
571, -0.40482758439065947
572, -3.7617242916385294
573, -6.007050487566175
574, -7.879068756049946
575, -10.967670363881552
576, -14.758523764678102
577, -11.780744806369057
578, -1.264271929408551
579, 4.588759416031735
580, 2.7650040158823685
581, 4.976084165009979
582, 15.434247359784422
583, 21.594318353347262
584, 17.511701565835665
585, 13.08501430707156
586, 14.906126353918808
587, 14.677203868109245
588, 4.951399871189096
589, -5.97891260612414
590, -9.68119231148421
591, -4.663882563479547
592, 12.557749879311359
593, 34.627828048969604
594, 41.01261836153708
595, 34.75299168442871
596, 25.87091547190812
597, 15.166892031156749
598, 3.45214450898402
599, -6.736872039190075
600, -6.653256878193133
601, 2.045735344222976
602, 2.679861766715021
603, -5.780775328096752
604, -8.771800984377478
605, -3.2417947870185344
606, 10.599947075175805
607, 32.74260518477058
608, 41.947571256582705
609, 31.46015629281146
610, 16.04690017712528
611, 2.4475084254313515
612, -7.182026750366731
613, -12.690623808950477
614, -10.612083064465878
615, 2.136258204315709
616, 13.248743137992278
617, 10.150192626033913
618, 0.42625794490140834
619, -7.058547436050503
620, -9.113436185300543
621, -0.21573152105474946
622, 14.818635102759345
623, 25.63662826258087
624, 31.957327386325687
625, 33.626245549181476
626, 29.520554956564865
627, 16.638790026067454
628, 0.04569136873260504
629, -3.184329312669888
630, 3.9930397317302777
631, 6.604825571624133
632, 4.0288305448793835
633, 3.4248301020361396
634, 4.890259856564626
635, 3.705986384672542
636, 0.29363818326373803
637, 0.019860127702486352
638, 3.4300400183064994
639, 5.474197024523164
640, 6.007648236289697
641, 16.561247831021774
642, 38.42609630523111
643, 49.00773891899598
644, 41.05325582005116
645, 25.446053675559597
646, 6.928464742990855
647, -3.03168673549726
648, -0.4860558153786769
649, 8.157038398524037
650, 19.953013803096383
651, 22.00458649428174
652, 6.6520624633940315
653, -9.35437012673583
654, -15.609816086441242
655, -12.060210319043563
656, 2.244578686895693
657, 15.310317847224724
658, 13.231103049440662
659, 4.361030668354033
660, -0.9656023130719404
661, -0.4414097321578083
662, 9.832677325222448
663, 23.212352896433913
664, 26.761378485588466
665, 25.10283825607803
666, 26.60775397432144
667, 30.096870289350136
668, 32.92792377869773
669, 33.63222255235223
670, 29.116306634353805
671, 18.941475026374064
672, 2.302323428949421
673, -13.808225268654496
674, -12.386259897005402
675, 2.533533446796355
676, 16.570911171117586
677, 25.574921289304257
678, 20.15768527069895
679, 4.508781769131474
680, -2.7595151289583555
681, -2.165087662885526
682, 0.41831179034033994
683, 5.948481334964072
684, 20.81366267562271
685, 38.98968987095486
686, 31.041892768234447
687, 1.5710996532584431
688, -4.925904207047097
689, 12.197492223328936
690, 25.579185885170773
691, 30.87021988585957
692, 37.0746287004913
693, 43.72125443525874
694, 37.41432181637674
695, 18.478667134719217
696, 6.954281583641205
697, 5.830880521627023
698, 2.207083883870382
699, -5.478356605833142
700, -5.729675075999239
701, 3.79387878307989
702, 20.87323721293069
703, 42.59634437245677
704, 52.21615539546974
705, 46.23777928492473
706, 30.761258890752288
707, 8.91658766972887
708, -2.0242324056935104
709, 0.4836782943839353
710, 8.834676368743203
711, 21.152624428100808
712, 30.254088802068964
713, 34.359878689318975
714, 33.53230918975123
715, 28.125555987468033
716, 22.263474496358867
717, 16.745965974360843
718, 6.241520009053147
719, -9.002213357056007
720, -14.690823535910567
721, -7.186235592653702
722, 6.137177826426523
723, 23.558623583629924
724, 37.23141632117495
725, 44.5098150807612
726, 40.04619664423035
727, 23.187121959548676
728, 7.028197321699736
729, -3.399892178858863
730, -5.449283695980739
731, 1.13265800822046
732, 8.484072930746606
733, 14.861978673963677
734, 20.670060873501825
735, 25.823483411644702
736, 24.83196725935659
737, 16.565240818264556
738, 6.499372887858954
739, -3.0044947271217097
740, -11.242790233480264
741, -17.98980178489819
742, -17.650344998583023
743, -9.241317995080863
744, 0.6928684149324909
745, 10.565509841322637
746, 13.939638420304163
747, 10.242476563300443
748, 8.503163601157212
749, 10.296861951565916
750, 10.863214042492928
751, 9.18904937974321
752, 5.749070056195251
753, 1.539896722278172
754, -1.5144600653884481
755, -2.240156618277979
756, 6.149125357193952
757, 23.391652368140058
758, 33.81171608769364
759, 34.28714870505064
760, 21.974260321920156
761, 0.7585921063796377
762, -5.96465882837083
763, 0.67134527744156
764, 1.9826780697981121
765, -2.6281787728644304
766, -5.0787042043834845
767, -4.723573206428227
768, -2.1587293228776616
769, 4.735695605633737
770, 23.955842444417158
771, 49.53089580606138
772, 60.10581146925642
773, 57.246876488797625
774, 51.47318129837004
775, 43.13822934637892
776, 31.09140601132367
777, 17.240480847854542
778, 8.36332126984962
779, 2.5140151221153246
780, -3.904461603810887
781, -6.319698881816748
782, 6.00388705814612
783, 22.123704116344925
784, 18.499502220957766
785, 8.547813272883104
786, 15.736064378597803
787, 24.121862195024278
788, 11.659372825994978
789, -3.1960047402803866
790, 2.5178937466926072
791, 12.85683191703447
792, 9.643400177168587
793, 9.300992376376144
794, 26.049103795109204
795, 40.44473770679906
796, 37.86322533708881
797, 25.80129682034567
798, 9.536453959411574
799, -0.11135268728958181
800, 1.4987576283861017
801, 7.973179430597156
802, 16.744678785176802
803, 29.196576632837605
804, 45.07271136948884
805, 42.94701857636028
806, 17.194210625658343
807, -1.52297692559614
808, -4.780244254446643
809, -3.745976038301251
810, -1.1211046088819785
811, 3.8973709469660207
812, 10.669846008991044
813, 10.497647269072331
814, 3.5139569137431863
815, -1.0996104968389773
816, -2.613541414519659
817, -1.6887526899872682
818, 0.7101599219004129
819, 1.2241759492267192
820, 1.2891127687921653
821, 5.9992312794097415
822, 11.6031192530927
823, 8.382017769945378
824, -0.2936496728580096
825, -6.7605815001202245
826, -8.377277116167534
827, -0.2562088865629448
828, 14.340078807264945
829, 29.929747674183545
830, 36.097472382240994
831, 21.941070891043182
832, 2.1774995509085784
833, -10.748161386763059
834, -11.332892333797645
835, 4.404839464066299
836, 21.086364846820743
837, 29.22001244568537
838, 24.63780364175591
839, 6.956433547382403
840, -3.0128820345098575
841, -0.13686572006417919
842, 10.116762384111098
843, 25.348714573096004
844, 30.29485711882171
845, 24.41314834700006
846, 20.87669159326606
847, 21.57422722031106
848, 25.875752991711124
849, 30.46038409463199
850, 24.627285322475018
851, 10.794824089321082
852, -1.6246448658803274
853, -8.048367364495789
854, 1.596420253949418
855, 16.524555163214245
856, 18.26325447590989
857, 11.683198961887683
858, 2.590766567263472
859, -4.032887140167986
860, -4.886300978044346
861, -1.275870071018744
862, 6.137415621780747
863, 9.496640030410163
864, 5.580910493455576
865, 5.244706989241422
866, 11.395866273564934
867, 15.037977101248998
868, 13.807306541980324
869, 7.254518474685483
870, -2.903327095910754
871, -12.09715049496981
872, -16.007852635004838
873, 1.6999768809155285
874, 33.85769406532381
875, 50.99349081176115
876, 52.9329088711861
877, 42.85000129806076
878, 23.73530422045087
879, -0.05519031021913179
880, -15.295186263431788
881, -9.431241487932311
882, 1.5782663968175257
883, 6.373568657652413
884, 6.132044909279557
885, 1.89904292795336
886, 7.235436169382865
887, 26.499177553592745
888, 39.84372525986555
889, 42.02069099312257
890, 34.22352554664258
891, 18.59050049776897
892, 4.450510441368806
893, -4.399205348067426
894, -1.6394246243457928
895, 9.505761305691976
896, 20.145242806463557
897, 28.738680742058023
898, 35.04970344715775
899, 38.71531078821454
900, 39.288175314386535
901, 30.462973711769337
902, 7.626242259311766
903, -7.639016578956671
904, -6.041195498003162
905, -0.16594163144236518
906, 5.557665949094826
907, 10.484332910888497
908, 12.520717973579849
909, 3.870198175562109
910, -10.790170400914576
911, -8.92287920831859
912, 4.785170310151443
913, 9.976389271775133
914, 11.349757530121224
915, 21.751377414151648
916, 26.998520011017717
917, 7.911056499865481
918, -7.186811843897431
919, 3.289946548622993
920, 12.65784818461816
921, 6.146310758880645
922, 8.11304623813021
923, 24.90467237985149
924, 27.33664577040372
925, 12.719178708258823
926, 7.483389684710346
927, 11.86967608370469
928, 7.0957081362262215
929, -1.4407698274139875
930, 1.2926195796844695
931, 10.843124944571173
932, 18.143320125873288
933, 20.56908817791509
934, 15.581118207996951
935, 8.351875116929477
936, 2.3693570996506423
937, 0.5115215448809067
938, 2.9293343310455384
939, 1.2499345403152802
940, -5.403292948566559
941, -7.399303034741479
942, -4.925949730142747
943, -4.446126136029761
944, -4.592326449295342
945, -0.5504834452262912
946, 5.688539952539486
947, 10.669110062208802
948, 15.434588026153051
949, 21.500754527951813
950, 25.02227169112348
951, 23.764705919325024
952, 18.02317917646451
953, 8.573068344748663
954, 2.0369181643127376
955, -0.6059384527284237
956, 1.8665170201143155
957, 10.506967189264287
958, 28.00562099843728
959, 47.47955514754585
960, 57.69811229374545
961, 56.117270500538325
962, 40.22483424390839
963, 19.9353371421862
964, 2.199507270508093
965, -6.1182155761375725
966, -4.300405657074862
967, -3.5806141742918953
968, -5.384293826312387
969, -2.738989466939529
970, 2.7287070554079946
971, 2.505162922740965
972, 0.7611916717983149
973, 6.430115355389717
974, 8.756208138143393
975, -4.043508364141871
976, -10.127865715522148
977, 2.668820426241382
978, 10.73032595046243
979, 5.909913016875635
980, 1.2109126546129119
981, -0.35600649827802044
982, 0.9653918049098138
983, 5.212107282029592
984, 12.585771422172002
985, 18.459082963874152
986, 16.477448469590854
987, 9.490129030283242
988, 0.2429535865944672
989, -3.6022052718140003
990, 0.8412559793332548
991, 7.952591878191015
992, 16.580112568164623
993, 25.304988851529743
994, 32.202100667063405
995, 31.39337787522527
996, 22.57392492148756
997, 6.0055340928797705
998, -7.266510486259904
999, -7.946427767582918
1000, -4.016771883903402
1001, 0.33202080123328415
1002, 4.035634784573631
1003, 6.959238359732353
1004, 8.566975004765936
1005, 8.86952388787904
1006, 7.984058758093852
1007, 6.092149846680513
1008, 3.526560554369553
1009, 0.6786960629306122
1010, -2.5705667774150243
1011, 0.3562114712526636
1012, 12.450502173241148
1013, 17.744481655841355
1014, 13.824456678205024
1015, 16.27159763226382
1016, 22.782038556852967
1017, 17.717446701506105
1018, 12.008254451541234
1019, 28.11116333088239
1020, 41.9717903877322
1021, 32.94699791461426
1022, 24.421578806582602
1023, 26.14268597265618
1024, 20.793165569635676
1025, 7.064497115805807
1026, 1.6546536212763385
1027, 4.672860168637271
1028, 12.608641093745973
1029, 16.721197680626574
1030, 5.938687880906855
1031, -7.658444082287588
1032, -17.131497652102098
1033, -18.594385090377273
1034, -10.585333293953909
1035, 6.444500981638612
1036, 29.674320922764764
1037, 43.64247447344678
1038, 48.2983680027819
1039, 45.846870102207504
1040, 45.75943868131708
1041, 55.94617538353714
1042, 55.23883151844393
1043, 36.26673507407031
1044, 22.118360752348963
1045, 15.550037071134739
1046, 6.077145584912387
1047, -4.545044355430036
1048, -8.5320092655611
1049, -9.31877333291095
1050, -10.559100294435893
1051, -8.210355761947767
1052, -0.8823846880300152
1053, 0.3235910171006253
1054, -6.099678403223379
1055, -13.117028706717292
1056, -18.45820278285919
1057, -17.954881996725135
1058, -15.215464528231905
1059, -14.562474774400243
1060, -18.579959285974383
1061, -27.949626384730436
1062, -29.897871320235026
1063, -21.744672993781933
1064, -7.4098534727691
1065, 6.927663765715806
1066, 6.306788079012222
1067, 5.934660937238277
1068, 23.813434832775783
1069, 56.29429812274111
1070, 104.07483441166869
1071, 175.6090802576232
1072, 254.81648105274417
1073, 312.99875030410294
1074, 354.8674380163802
1075, 397.3622894771793
1076, 432.0657792595939
1077, 450.20645903232435
1078, 454.1668190172254
1079, 444.3579230747587
1080, 415.0854968225194
1081, 368.86998165756495
1082, 319.2985143866663
1083, 263.05448304795254
1084, 192.36649305635046
1085, 120.37701205003987
1086, 69.49169573288282
1087, 35.99120126757498
1088, 16.80846627303663
1089, 8.767353893008476
1090, 5.72240465883533
1091, -6.596278740448724
1092, -22.61761454848056
1093, -34.19084432637624
1094, -36.78618354831519
1095, -27.935853805774286
1096, -11.247264757696485
1097, 9.190639008176504
1098, 15.786961608359206
1099, 7.397748205241669
1100, -14.3143908929203
1101, -32.621060667799384
1102, -34.72578074911394
1103, -25.56790834297908
1104, -8.632213888903152
1105, 2.164267366047852
1106, 6.6479316950790235
1107, 8.011474846583042
1108, 6.917412729009811
1109, 3.914637273398739
1110, -1.2273778663245594
1111, -8.451355040499948
1112, -11.12386261964798
1113, -6.778503702582611
1114, 8.695311329962124
1115, 27.955461386483876
1116, 36.17377580980701
1117, 32.46356257987986
1118, 17.739403991075733
1119, 7.688785146616738
1120, 5.4859167322535995
1121, 2.5148862131102305
1122, -0.020630246613791314
1123, 2.0586734182188593
1124, 2.8669338473146126
1125, -1.7559633349017076
1126, -5.663567410032556
1127, -7.502858576752487
1128, -9.59883929409284
1129, -8.379373393178867
1130, 4.766777612691385
1131, 22.168283020940407
1132, 34.754767154008505
1133, 31.09226470710837
1134, 12.249988929719848
1135, 7.463625451190637
1136, 13.816189565709237
1137, 17.22042793741116
1138, 28.336605873824965
1139, 53.89246740560998
1140, 66.53885759702098
1141, 58.95383474696837
1142, 47.88137051653189
1143, 31.6464325419372
1144, 0.7198763084322763
1145, -19.471962071453845
1146, -9.132188733684188
1147, 6.237909995211794
1148, 19.546023645665628
1149, 36.65687044190827
1150, 48.345845551262755
1151, 32.78110374081939
1152, 9.849093503842596
1153, -2.1356912535682113
1154, -5.121012896781167
1155, 0.09214234609453342
1156, 12.860304927833567
1157, 25.049714454054083
1158, 21.3396713567181
1159, 10.734569958895918
1160, 0.5019788309648447
1161, -4.975598298470231
1162, -5.782377472907228
1163, -5.344457751509253
1164, -1.6045749807631182
1165, 9.432280938297936
1166, 12.364520950236283
1167, -0.5053429859976859
1168, -12.49664775703991
1169, -18.512170508372492
1170, -11.922771470720818
1171, 2.5132658661157166
1172, 18.1534794581612
1173, 20.90206992427875
1174, 7.692507000494288
1175, 2.6822120583003652
1176, 10.26138954664816
1177, 32.65167592116404
1178, 56.057968381055844
1179, 68.35631931145804
1180, 65.81886406816511
1181, 50.088528430769884
1182, 34.86793000282614
1183, 24.82189879800194
1184, 27.564556928868797
1185, 31.90667126836479
1186, 31.848591687255066
1187, 23.9093884100198
1188, 8.951077499835264
1189, -6.758902107042786
1190, -16.737702332942263
1191, -13.39511678771214
1192, -7.3353112835814045
1193, -2.7084954317342635
1194, 0.4078003684185205
1195, 2.3862265869272505
1196, 3.7133120174289616
1197, 3.996319671056426
1198, 3.7474137207441345
1199, 12.034911474042701
1200, 29.68985044049964
1201, 47.45191277041886
1202, 62.683323597110984
1203, 72.45958180942603
1204, 65.00811103545334
1205, 40.07145143292314
1206, 23.475863412608533
1207, 21.498804571195933
1208, 33.89724737025085
1209, 41.346306425710964
1210, 34.052309922419
1211, 26.798068210376414
1212, 18.990517957031898
1213, -1.581422953492165
1214, -16.90004591754655
1215, -10.294139488195242
1216, -5.310625396682553
1217, -5.510758720236936
1218, 9.309789891506398
1219, 29.48450498116108
1220, 33.3702083493165
1221, 27.098553207063787
1222, 15.004345197656903
1223, 3.884933056516502
1224, -3.251910978274509
1225, -4.079523980712565
1226, -1.4420426012136431
1227, 2.099920145197302
1228, -0.47540875422896534
1229, -8.205606189353375
1230, -12.818421371958038
1231, -13.474711126731336
1232, -9.915189424669734
1233, -7.543525634100888
1234, -7.258221961665868
1235, -5.940445111736835
1236, -4.68938562450694
1237, -5.360376227454481
1238, -6.355911545433173
1239, -5.932778241803362
1240, 1.5764140489789042
1241, 13.006812428726334
1242, 20.405976848856426
1243, 28.621976205140527
1244, 38.41324792951036
1245, 37.73731663764215
1246, 27.703228172959825
1247, 14.996909798308252
1248, 6.571060746222884
1249, 5.531386386381428
1250, 16.21277535761692
1251, 33.02411206753459
1252, 36.043244502604466
1253, 32.26347563804438
1254, 28.48355939845942
1255, 36.1941248963426
1256, 55.071100581636756
1257, 72.60856082724831
1258, 83.65138986844681
1259, 84.71743943470915
1260, 81.45481232084626
1261, 77.70979297333952
1262, 80.36504350865766
1263, 85.85362533758598
1264, 90.07753301114849
1265, 89.56005481229204
1266, 83.87013740322959
1267, 74.97493179157505
1268, 69.41425103658366
1269, 72.87369563985112
1270, 75.38640058942201
1271, 71.51619535283794
1272, 53.54826415229013
1273, 31.240880571491743
1274, 18.30922617115857
1275, 12.016919470588391
1276, 14.25371730825782
1277, 35.13199699943425
1278, 58.69578252532847
1279, 69.1151779531026
1280, 63.05441736258126
1281, 41.63749009827097
1282, 11.782536540577212
1283, -10.717292361887303
1284, -14.556952400668479
1285, -0.678237561383412
1286, 22.898863048153316
1287, 28.45511900028373
1288, 26.375089821242
1289, 26.060922572466097
1290, 12.353976067928215
1291, -5.323969978811874
1292, 4.4699070317451515
1293, 20.988219902212904
1294, 24.88811856506277
1295, 12.825339825227047
1296, -6.8124594594069094
1297, -12.848226661395756
1298, -12.335201639416937
1299, -8.762656237769079
1300, 8.74681659660996
1301, 27.48363401757547
1302, 16.194163226412684
1303, 5.575878796528514
1304, 9.806136314245123
1305, 3.8043507420723017
1306, -4.309181731211993
1307, 3.5664545169631765
1308, 11.727449094123813
1309, 11.813750165555803
1310, 2.4581324252549166
1311, -8.85463867385397
1312, -13.687018389815648
1313, -15.268011658187561
1314, -12.834397243940657
1315, 0.6241320572814857
1316, 11.726751648055142
1317, 6.799595459016018
1318, 1.3487788134482344
1319, -1.4694058819741258
1320, -5.161081281478118
1321, -2.767168008073668
1322, 8.932762661277138
1323, 13.19536786951062
1324, 9.739756850389767
1325, 4.7752129333800895
1326, 7.0908180779827035
1327, 17.980290040861973
1328, 21.596163219133814
1329, 17.28218902025651
1330, 7.474183453623482
1331, 2.731491691715064
1332, 5.43000294464764
1333, 13.68305434427566
1334, 22.804340115759487
1335, 28.22278197824471
1336, 20.292947544589197
1337, 3.3232902831671254
1338, -7.615646563594737
1339, -13.07401094445163
1340, -13.540300311007286
1341, -8.753840603322033
1342, -0.5319928488038386
1343, 8.723773718323628
1344, 22.372303377049775
1345, 36.490957734620224
1346, 37.9482805870241
1347, 26.960460612773204
1348, 6.400351229832722
1349, -8.030270887549023
1350, -11.474906929675626
1351, 1.226825705645524
1352, 15.130344045655875
1353, 20.378251265736026
1354, 10.62570156584843
1355, -1.2740433086621579
1356, -1.4922415730206922
1357, 9.88438842020605
1358, 31.29779439873664
1359, 54.52051725442652
1360, 62.13832741758665
1361, 46.86762306730475
1362, 31.11273381869819
1363, 13.65168492294356
1364, -9.836335480189291
1365, -14.375061423551188
1366, 0.3448931355960667
1367, 7.160894954927471
1368, 13.166377035278174
1369, 20.72575151545766
1370, 6.39448767396857
1371, -14.03777285015849
1372, -10.537066057921493
1373, 1.4899277866056764
1374, 14.896698527881426
1375, 23.26128739535261
1376, 26.808188666028627
1377, 25.17559434206396
1378, 11.302466423128863
1379, -0.9088373000470256
1380, 10.65697139967142
1381, 24.762895413967726
1382, 32.02434460077461
1383, 35.36080528420621
1384, 24.856873848579653
1385, -2.4039664962494953
1386, -11.175601110028765
1387, -8.206905372555411
1388, -12.330196880600397
1389, -0.8715401359793304
1390, 25.674956371272856
1391, 35.991889078278746
1392, 41.07251562761644
1393, 46.120354744522274
1394, 27.38524731853113
1395, 2.6237505571489237
1396, 0.6899032539713517
1397, 4.239804109374745
1398, 10.589363509924624
1399, 26.35221985772455
1400, 43.94750718545902
1401, 58.018340490144055
1402, 61.73166196823831
1403, 52.787707557306476
1404, 31.725325368006224
1405, 17.556000836872272
1406, 11.396921352843037
1407, 2.9122078004786545
1408, -0.7549082235952937
1409, 0.7731544216503607
1410, -1.4413635024295672
1411, 5.168868068200936
1412, 27.309461567173912
1413, 41.30070756252553
1414, 49.5275271727171
1415, 59.52169096894022
1416, 63.26507966301688
1417, 55.544196825573636
1418, 30.468052023381915
1419, 5.658924039585372
1420, -7.556090755769446
1421, -2.5055992363081714
1422, 16.090896269936593
1423, 41.02432044093689
1424, 43.61312924718504
1425, 31.09050741501005
1426, 19.549480699850392
1427, 6.15352852454339
1428, -4.631214128085503
1429, -3.7949771916109967
1430, 2.9021031297063473
1431, 12.066446947619852
1432, 19.243919382561444
1433, 24.41867311928445
1434, 25.953054308350602
1435, 13.537627613847235
1436, -1.1959016309540402
1437, -3.2846545214420075
1438, 4.135805527929051
1439, 17.55673652412588
1440, 28.926759992505595
1441, 15.494567301444476
1442, -14.763773538524674
1443, -19.46651403086844
1444, -4.59853297599625
1445, 21.693849644848115
1446, 38.741614182472404
1447, 30.920949852408285
1448, -3.3915239027894586
1449, -8.333917798865969
1450, 8.034817552384993
1451, 25.69849183546512
1452, 36.8096036892548
1453, 31.779891516324597
1454, -0.45002896211485677
1455, -11.909740498475458
1456, -0.36407219616285147
1457, 1.522520860612758
1458, 5.755454971213794
1459, 16.189964883711127
1460, 21.30759625488963
1461, 26.942363832001547
1462, 35.22778447907376
1463, 34.35185456121735
1464, 28.79506458171454
1465, 23.12780899688505
1466, 9.744110590521132
1467, 0.5958148291701946
1468, 9.08401423143846
1469, 17.44125027480618
1470, 21.66107773639328
1471, 23.841845195801852
1472, 12.812785478799924
1473, -2.916011036600139
1474, 3.3028077180651962
1475, 13.138110485150264
1476, 18.07749874407523
1477, 19.28794487924165
1478, 15.02867054663102
1479, 8.499705610087176
1480, 15.865039641168323
1481, 27.22470756669918
1482, 33.87824312832504
1483, 28.96417346943599
1484, 15.946875121336006
1485, 1.6056040422279239
1486, 3.7711147746715596
1487, 11.469976215429824
1488, 9.37601914605375
1489, -0.0007360358558798907
1490, -7.3612213835094735
1491, -3.246715381480726
1492, -1.3971826917577346
1493, 2.657400384784296
1494, 20.12907649293311
1495, 32.42641096136572
1496, 37.762208501028
1497, 42.33994934757493
1498, 39.29439763134201
1499, 30.48557899266416
1500, 24.410276150230175
1501, 9.197605234711546
1502, -10.068860580739056
1503, -13.640386267695021
1504, -3.1122222025817337
1505, 15.75670484969578
1506, 26.808971879750743
1507, 16.42351609546722
1508, -7.589018293643221
1509, -3.9160481710655404
1510, 7.530593101320164
1511, 15.107708148734218
1512, 16.775258314313305
1513, 12.364215099957846
1514, 6.385680968356837
1515, 15.55167252082083
1516, 20.431317084986404
1517, 11.291062986641236
1518, -0.9404956657656385
1519, -6.510963891711754
1520, -0.33219857723247515
1521, 17.596995201688514
1522, 27.34796953143541
1523, 18.766430167831004
1524, 6.208404346505176
1525, -0.03562823209540511
1526, 3.124452517028203
1527, 7.646797679824431
1528, 9.197343678539028
1529, 5.904572996392062
1530, -0.8252495805586477
1531, -4.029526147288607
1532, -1.306126339947241
1533, -1.4427080266675603
1534, 0.11296960336221673
1535, 5.788239439355266
1536, 8.925277684462344
1537, 10.115470428872186
1538, 10.5662624178251
1539, 11.474036790388936
1540, 6.338992099517554
1541, -5.139237714637375
1542, -8.576880666625584
1543, -7.133949041448659
1544, -1.743684735848774
1545, 12.950295708214298
1546, 11.932262869803935
1547, -6.891712554052447
1548, -4.4157543176122545
1549, -1.8384414820311576
1550, 0.04327617579360776
1551, 34.16610010324575
1552, 42.63457996995794
1553, 17.82288538504804
1554, 13.832900504544114
1555, 5.279755484210682
1556, -5.019520188082197
1557, 12.910071287903975
1558, 10.629043231436754
1559, -9.081524156005798
1560, -4.53157537778543
1561, -3.3200573025048925
1562, -11.403462593365475
1563, -23.648193001616846
1564, -43.65947089480778
1565, -55.16028390638917
1566, -34.054793145262465
1567, -9.588664211329842
1568, 0.4874181852071615
1569, -14.393939129786077
1570, -23.379714542965075
1571, -15.268854900033375
1572, 12.858099844553408
1573, 41.95497856403631
1574, 61.005717880869724
1575, 70.86467875734752
1576, 105.74049351750477
1577, 172.16235398116532
1578, 249.57378899251785
1579, 305.6718700381293
1580, 350.9073641394896
1581, 388.05677818835306
1582, 406.5827051954559
1583, 416.3560909918674
1584, 411.957312957328
1585, 374.54275434090687
1586, 327.22021039642436
1587, 266.6467719740374
1588, 179.01502894733903
1589, 98.65999193734001
1590, 48.867413099761734
1591, 28.455790988818308
1592, 19.48261936215681
1593, 8.751861282351001
1594, -10.07297892481165
1595, -24.77607766985193
1596, -25.21387504474751
1597, -13.887883711917311
1598, -17.556936798192964
1599, -23.665711878458296
1600, -22.494514966754423
1601, -7.402896663934371
1602, 3.2756391724174136
1603, 6.70903803886813
1604, 5.843458473418195
1605, -11.377428608168202
1606, -21.058363433263594
1607, 0.08531377407643959
1608, 10.704970975172955
1609, 19.691405244805082
1610, 29.00899547343056
1611, 2.353897693422141
1612, -19.619831357119665
1613, -19.681035434121895
1614, -5.983851721223573
1615, 24.442938766997486
1616, 48.84891253889327
1617, 30.66696590470383
1618, 7.300245201943881
1619, -4.470412437740151
1620, 1.101827724853365
1621, 18.828995871753023
1622, 26.313780805955275
1623, 14.486633582674358
1624, 2.2870883586410855
1625, 3.993578204765754
1626, 15.955488272422599
1627, 18.29970003349308
1628, 11.79605207598297
1629, 1.2012416069553637
1630, -6.121069184490125
1631, -1.6739943497004788
1632, 8.664769636837036
1633, 20.272316100846638
1634, 33.30069560463494
1635, 35.78349623587064
1636, 23.177576188015564
1637, 0.9589140103068985
1638, 4.3742619826305145
1639, 26.746938366374707
1640, 43.31606139271071
1641, 40.207942300161676
1642, 22.2442547511082
1643, 2.521941502298887
1644, 6.265147339694295
1645, 4.134152311241223
1646, -8.158284778273128
1647, -13.119057765047728
1648, -3.410338773221838
1649, 4.682179423883554
1650, -6.883728092021784
##END=



