##NAMES=
##LOCALITY=
##RRUFFID=
##CHEMISTRY=
320, -9.61659084388657
321, -6.8563225516018065
322, 2.1892196222042912
323, 16.687596519344424
324, 31.07388153737702
325, 35.96381024293851
326, 31.558261193298677
327, 19.304324356192865
328, 1.0190995005527839
329, -6.980915515075594
330, -1.6575047839141916
331, 5.957117420975919
332, 10.278281112886816
333, 11.264868635852508
334, 9.618895461863303
335, 5.434449065016452
336, -0.4920734243842162
337, -6.750739087180136
338, -1.6527186022904061
339, 16.690362629939955
340, 35.99883923049629
341, 49.21578549407468
342, 54.448950761556716
343, 50.141351122078504
344, 39.57626486894742
345, 28.832918663308647
346, 18.97609972168084
347, 15.542226905640746
348, 18.252894856607327
349, 24.53744637453292
350, 31.815495338169512
351, 37.85112267929799
352, 41.49227070369761
353, 39.13434345546784
354, 26.696207052303635
355, 8.587619551592525
356, -3.7450063614660394
357, -11.077332616427611
358, -14.159895562269412
359, -13.246061500619362
360, -7.490161731719127
361, 3.8435235195156565
362, 16.158763929743145
363, 25.469937350367218
364, 29.321820695799488
365, 24.353243879383626
366, 13.970897114513718
367, 7.7458709396178165
368, 5.650433813422751
369, -0.5630932833632869
370, -11.90798572300264
371, -15.172022407852637
372, -5.850341540341105
373, 5.921452587826479
374, 13.691375901520587
375, 21.833453570964593
376, 34.26810554071017
377, 47.1476025862471
378, 49.07344618390698
379, 41.46925587593523
380, 37.3856437197519
381, 38.56020283883299
382, 37.847006504462115
383, 32.81930301705006
384, 27.445473379642408
385, 24.41248085062898
386, 18.89884564238855
387, 4.093189305560827
388, -12.161268605408623
389, -10.858885944258873
390, 4.484819255572347
391, 8.745121054245828
392, -1.1902033016708629
393, -6.851130918862964
394, -3.2033719168189236
395, -1.4117714558897205
396, -8.173775072777971
397, -16.45775188855623
398, -17.768226324572424
399, -15.347747419638836
400, -16.279867212739646
401, -19.067930898914256
402, -15.509361458574404
403, -4.582020014908721
404, 11.348943723178309
405, 32.533184670876835
406, 43.06849461451475
407, 35.96814641468336
408, 27.544199692428265
409, 35.40410597336495
410, 56.317297933540885
411, 85.20305836007583
412, 114.28886846380601
413, 136.9733724712437
414, 152.37824120275218
415, 158.20675728205697
416, 154.99902418778902
417, 157.32855213758057
418, 170.04106704459673
419, 185.3971244913182
420, 198.58468482301805
421, 207.7034285727541
422, 210.46879317002276
423, 208.95511856251915
424, 207.78080207927042
425, 207.17934341435057
426, 207.41138733254002
427, 207.82550880158806
428, 203.03152532814102
429, 191.85693631190406
430, 174.0626392453696
431, 149.616806205147
432, 126.7922700449908
433, 111.40211389439128
434, 97.22439866377226
435, 75.99007722087481
436, 50.247118752506594
437, 31.168553969351706
438, 15.82384680575251
439, -2.750276730990663
440, -24.019952261452545
441, -25.764920981967407
442, -4.171767446252943
443, 16.227925006427995
444, 27.150999283961937
445, 32.16640538441152
446, 34.796131411630085
447, 35.407648189936936
448, 34.45926851012109
449, 34.01759553927741
450, 38.59406002399146
451, 45.65002508622956
452, 45.03936945975374
453, 37.38064856726942
454, 33.56167785521848
455, 35.247501692012975
456, 36.658598355606046
457, 35.8044357183644
458, 28.778367973362037
459, 13.388425330699647
460, -0.18361256107391455
461, -4.59376365127855
462, -3.7701147999910063
463, -3.6460985719545533
464, -3.861537986183066
465, -3.129452696152839
466, -1.8112329666691949
467, -2.3183809481470234
468, -4.427997630496975
469, -2.726456710029197
470, 3.8252564264848843
471, 5.235924022017571
472, -2.537883255744873
473, -12.11298394314008
474, -19.382228384984955
475, -20.721294151478105
476, -11.2683728469583
477, 3.660570476921748
478, 13.529562206625997
479, 17.314858203651056
480, 13.893848462957976
481, 5.089678896111309
482, 1.270450440365039
483, 3.54389489268533
484, 12.906872957527412
485, 29.927293144880878
486, 41.83468720956125
487, 44.06994253651874
488, 36.19631227726586
489, 17.93612380203558
490, 1.3985606458159054
491, -0.4438355319548464
492, 4.368344399722901
493, 2.679768512735336
494, -2.88447812595723
495, -4.559938502950899
496, -3.409793887804881
497, -5.294938827627448
498, -9.90806334612762
499, -9.001486112033035
500, -1.6774489200533935
501, -0.18920335362827245
502, -8.171220571692174
503, -13.529989593885603
504, -10.420267954002611
505, -1.3374765773760373
506, 12.446359997344643
507, 29.75013565926838
508, 49.06664719105811
509, 65.55430633544665
510, 75.56368575244551
511, 80.93812747837501
512, 87.50265048049732
513, 95.65989572163835
514, 105.45586522925623
515, 116.83105850090715
516, 129.2932828877706
517, 142.5436724502042
518, 153.88842894172103
519, 162.33345803372322
520, 163.47424652200925
521, 155.23713426671293
522, 141.00972394572227
523, 123.22469858528939
524, 100.61868326077138
525, 71.77430477973849
526, 42.885857978819786
527, 28.8203986727126
528, 23.25020378185536
529, 12.751153294420874
530, 0.27940266598807284
531, 1.8479805066908739
532, 16.130417222092092
533, 26.97145110592828
534, 30.57644375183463
535, 32.113266460788054
536, 32.346472199440996
537, 23.61845592690952
538, 3.7605813349468917
539, -7.51784464128059
540, -1.613291083051081
541, 9.381452832609284
542, 17.197799674456746
543, 21.593642548462412
544, 23.340986642348525
545, 22.95261982680313
546, 21.26118396421316
547, 21.123266260472974
548, 31.24814621213909
549, 45.35708132933178
550, 48.870702542603794
551, 42.00419900406541
552, 31.17052611328154
553, 18.195646482899974
554, 10.100674596343652
555, 8.599768837458214
556, 6.322576493344968
557, 1.1478058063257777
558, -5.365772893068424
559, -12.930242693213131
560, -16.26230944745521
561, -12.444810591316582
562, -0.37882895555958385
563, 21.683671982096712
564, 38.507151932049055
565, 33.62003936175779
566, 16.44987563185441
567, 1.3295922521292596
568, -9.997837417476603
569, -15.621634347616236
570, -15.489327018181939
571, -8.108004955002343
572, 3.1858104091716086
573, 3.4245436594492276
574, -5.234696330513543
575, -3.7098226828707084
576, 9.272834125667032
577, 21.108697559214306
578, 28.011311180790017
579, 30.33153276292478
580, 28.590699237644458
581, 30.691182974171625
582, 39.351437630034525
583, 44.81017652589571
584, 42.1817976716502
585, 32.45363549391823
586, 16.285748196722125
587, -1.9837987682917628
588, -21.75140852116192
589, -29.08651250388857
590, -5.280513761930706
591, 29.837751716092953
592, 40.698222963904755
593, 35.076871140018284
594, 30.464219838525878
595, 24.829174034959124
596, 11.069846463907197
597, -3.3550544944960166
598, 4.015143898867791
599, 29.02300412600016
600, 39.049628158208634
601, 32.50854224570867
602, 24.204047548210383
603, 16.26148732626234
604, 5.5802702144351315
605, -6.770605848643754
606, -8.203214223057785
607, 3.7576174856067155
608, 7.713952852051079
609, -4.087645176448859
610, -10.322651502368444
611, -2.013238053756595
612, 7.4511660964458315
613, 10.96565217086254
614, 15.506141527531327
615, 26.60278365641898
616, 33.458662869033105
617, 26.2476589505668
618, 13.371123120510674
619, 4.599542740733796
620, -0.023745566203160706
621, -1.5894291047848128
622, 0.5338644248390665
623, 7.988848922208945
624, 19.53345087128082
625, 29.9185850634899
626, 33.961616694235545
627, 18.16986669065045
628, -8.535983207642857
629, -15.471282789048928
630, -4.855476950087905
631, 8.641385076419283
632, 23.412670026593332
633, 32.130697546410374
634, 33.407348007712244
635, 24.072441080672434
636, 6.034274163935606
637, -2.1666083574991717
638, 1.5142471393969572
639, 10.390625793643721
640, 23.09266711939017
641, 32.179030638525546
642, 35.91125753012011
643, 36.19897314292939
644, 33.83285049550932
645, 31.69000258854203
646, 30.970939467130847
647, 32.88947851228613
648, 37.85896465518272
649, 38.243298878148835
650, 29.95491474237633
651, 22.73685431023887
652, 22.780879894985446
653, 19.950974823531396
654, 6.69516761495197
655, -4.4132300988512725
656, -4.121280637473319
657, -0.4217322273029822
658, -1.1178017911574898
659, 2.487185603191847
660, 21.140431285470186
661, 35.324090071219416
662, 18.756646162856214
663, -8.454530737828009
664, -15.685015512618065
665, -9.877196007508246
666, -2.0160601536636023
667, 9.401685681208619
668, 27.36074980736248
669, 41.35608915811872
670, 30.102745816741844
671, 5.834440989763152
672, 1.2189762970006086
673, 9.290371599619903
674, 8.0445515328297
675, 0.8290052405127426
676, 1.6522919059098058
677, 8.12212110171913
678, 8.621273810383173
679, 5.257515058331592
680, 9.679358557391879
681, 17.81760736576871
682, 11.24488368618995
683, -6.369776414418993
684, -10.94092725303426
685, -2.332863942007407
686, 9.120623681735651
687, 22.078051127874005
688, 30.298852808792162
689, 33.280839106383155
690, 32.54853556864691
691, 28.327590070206497
692, 20.525537766398884
693, 10.06013203209659
694, 4.153146314595688
695, 2.648323111973241
696, 0.2932579532221098
697, -3.2291880760521963
698, -1.1441705170814203
699, 7.387574560996654
700, 16.073515239121207
701, 22.636059848120567
702, 27.513297237874667
703, 30.04547601753484
704, 23.09706389485882
705, 6.559187084264522
706, -2.6342762949434473
707, -2.0765009069082225
708, -0.5070056799345366
709, 0.1939444087938682
710, 3.409889703701083
711, 9.828076763460558
712, 12.85988222725382
713, 11.069656058425608
714, 8.428133598710701
715, 6.097182986933603
716, 4.1808804697075175
717, 3.1019630919045085
718, 2.4216110790462153
719, 2.3850224694037934
720, 8.296627454998543
721, 20.32736812291796
722, 22.686935716075368
723, 11.570222768447366
724, 0.8922686372648059
725, -5.009954091229247
726, -7.508108628309401
727, -6.676380757206971
728, 3.0281867678113485
729, 22.71940997798174
730, 32.18496293033195
731, 26.087099019232483
732, 14.049173631128724
733, -0.2406099360277949
734, -7.226784075267005
735, -5.2356440631879195
736, 0.16572006690921626
737, 7.090096580586305
738, 6.92678131294997
739, -1.5230728959791122
740, -4.523332323279192
741, 0.7243216858892083
742, 6.780267984026523
743, 11.022130460898097
744, 9.311571360418384
745, 1.302992065426679
746, -5.978238242549196
747, -10.34906563102777
748, -1.502321722301076
749, 21.087119606389024
750, 33.11526153641171
751, 31.31106325833707
752, 33.30002744591593
753, 41.05227423490578
754, 41.462761424796554
755, 34.06966711995119
756, 33.62794181052914
757, 39.831318166339315
758, 33.27767892365864
759, 14.127363852171129
760, 4.481478954394788
761, 4.1946664135048195
762, -0.31558153998867056
763, -8.965614213480876
764, -10.054822925385452
765, -1.6925729437411974
766, 18.3218293770542
767, 47.84525587320013
768, 67.18282721336482
769, 73.1655677660583
770, 61.18493391274433
771, 34.68783681805053
772, 7.075172435994318
773, -15.00386619127039
774, -18.71625092972272
775, -9.167078318636868
776, -1.8720227834369325
777, 4.725545119294566
778, 15.952888631237784
779, 31.48465389995954
780, 45.86368968542865
781, 54.86585296001158
782, 50.113230106834635
783, 33.8712293919466
784, 10.757759501915643
785, -7.594072094211697
786, -6.023733946178254
787, 7.003233910623749
788, 20.10968408915005
789, 28.35566827904222
790, 26.564463169875125
791, 18.621348420181675
792, 8.74503075422217
793, 2.1245021437862306
794, 2.078712287307553
795, 5.315989490224183
796, 9.514979461778694
797, 9.971108817323966
798, 3.96302810189718
799, -0.7214001556831136
800, -0.1989648214062072
801, 6.235219054361551
802, 19.131826533652657
803, 27.391241352073394
804, 26.74254007728905
805, 21.75498134661848
806, 14.174073449635216
807, 4.78545621826288
808, -4.357401094041961
809, -0.38847814395921887
810, 17.945270854809223
811, 27.7673824885278
812, 25.729593510726772
813, 23.171937136563884
814, 21.425549158884678
815, 16.53764358652461
816, 9.318420784351929
817, 6.817776677451093
818, 9.95801077176884
819, 20.692171865059663
820, 34.073745643083384
821, 37.90515797435273
822, 34.30788653977106
823, 30.476549460793194
824, 27.53608810243759
825, 27.089600102332042
826, 27.57096112675208
827, 26.32907553197765
828, 19.53031139242421
829, 2.138692434067707
830, -14.995937402172785
831, -22.364793327717507
832, -17.530235126529533
833, 2.4594820820216228
834, 24.707892254308717
835, 39.117182745339505
836, 42.15935115423781
837, 32.38476060059793
838, 18.92331268350017
839, 6.226162297049541
840, 4.309385199488133
841, 14.159931555599087
842, 15.39790259026313
843, 5.8505792904643386
844, 8.894204201883895
845, 24.636546753721632
846, 25.19409276750639
847, 11.500039058403217
848, 5.310677025161112
849, 4.899075864792394
850, -5.323787139554497
851, -17.67519793754991
852, -8.012042355207086
853, 12.849125189362894
854, 21.132409189192458
855, 24.184411360899503
856, 36.19900591947089
857, 47.88621476525259
858, 48.44976279979028
859, 45.71553283057801
860, 46.1287999455285
861, 36.103070461030256
862, 7.928066602651597
863, -9.718357528047818
864, -6.44092779765424
865, -2.0952854214624494
866, -2.7098843156245493
867, 0.7473454639480224
868, 8.69377199154178
869, 3.5713939065490194
870, -12.106072094334195
871, -10.711587875572604
872, 5.908689793373924
873, 16.3103119809698
874, 18.93268785496548
875, 17.23432386133436
876, 11.788355527244676
877, 4.53456747384098
878, 5.385921596240678
879, 30.398275933514924
880, 55.78872671866202
881, 56.507983860830336
882, 49.32439286523504
883, 46.646824642612955
884, 37.58825601339868
885, 17.26057322114775
886, 7.923835719777344
887, 14.853066673380454
888, 15.958742349270324
889, 6.655804705335413
890, -1.9164383873953739
891, -7.357964109248314
892, -4.4706493269604834
893, 3.558605162942513
894, 2.9407720485978643
895, -2.9656694535938186
896, -3.431266201827384
897, -3.5242093717815806
898, -12.797082245490401
899, -16.525386898591023
900, 3.7336350960122218
901, 28.794213230761216
902, 41.49486481345684
903, 52.57435484765347
904, 66.92454125808945
905, 64.63300588917764
906, 40.29804625652832
907, 17.454085700748692
908, 3.391906878820919
909, -7.863361713888025
910, -15.631726584190346
911, -9.609751250119643
912, 5.226178519023506
913, 10.760958493767248
914, 10.940680265819083
915, 16.95689960819209
916, 20.050815067213534
917, 8.257744946929506
918, -4.011578287809243
919, -6.378614800860305
920, -2.2411981921418374
921, 6.931662305683403
922, 20.24320695488086
923, 35.560621147044
924, 45.56048258377723
925, 47.456904800951634
926, 35.828238407907975
927, 14.633575324055982
928, 3.504038662937546
929, 3.0772985604635323
930, 13.349469587669319
931, 28.994156288823888
932, 38.290578089844985
933, 39.266603009639766
934, 30.08378416675214
935, 16.065861060609222
936, 1.0755929921820098
937, -5.549112155750208
938, -1.9597567901764705
939, -3.2450757990168313
940, -10.22120532350209
941, -1.511487478748677
942, 21.7925153187839
943, 37.85107553808257
944, 45.09484960227928
945, 44.946749485483906
946, 38.831297518299834
947, 28.870863242827
948, 18.63208034652598
949, 11.466606299267369
950, 7.3184372427203925
951, 5.114176079142453
952, 5.455300007502956
953, 9.521797360457185
954, 25.002383592308433
955, 46.983500634008124
956, 47.62376216286566
957, 28.90214117568712
958, 8.173868323528495
959, -7.962575430195557
960, -12.455114941886222
961, -9.231337118965257
962, -2.220891575125279
963, 4.348181452248355
964, 8.01158850726415
965, 13.207512781502373
966, 20.877766301397514
967, 31.674265474822278
968, 41.741754962672076
969, 30.07237460408578
970, 3.6824919038981534
971, -5.920646812471205
972, -4.382147739693664
973, -4.5365279875804845
974, -4.919568908952897
975, -3.637058788755894
976, -3.8862947607663045
977, -7.155295809912786
978, -1.630421416959507
979, 15.639873501074817
980, 26.464076754646157
981, 27.72821159069008
982, 23.90069506726377
983, 15.793125895757385
984, 4.114911705567465
985, -4.324097838896705
986, -0.5088639917780711
987, 2.309550667304393
988, -6.839138952440862
989, -6.543887082646961
990, 12.38694050080585
991, 29.367395905022477
992, 37.8621373697988
993, 44.854615759754324
994, 51.60899360083613
995, 58.5903712793297
996, 65.75559679372873
997, 72.95878114312973
998, 73.77399488813126
999, 61.63865622753701
1000, 40.083197229189864
1001, 12.946204585200121
1002, 7.449992711764935
1003, 26.091044550809784
1004, 34.07409252994785
1005, 26.93144372404754
1006, 10.046199616652302
1007, -6.730259687372154
1008, -8.812407281723608
1009, -1.225347125590588
1010, 11.10949322607712
1011, 19.392917980855373
1012, 18.804283820376213
1013, 12.020403284443319
1014, 1.4201440362121502
1015, -3.6006331163760024
1016, -2.6485749905707507
1017, 2.299413840055422
1018, 8.437542394778347
1019, 10.851523549705462
1020, 18.891414188423823
1021, 39.298380805180614
1022, 50.97769100645496
1023, 44.59216527063904
1024, 30.092838191293595
1025, 11.750978407892717
1026, -1.3262530041897662
1027, -8.743191204317782
1028, -9.568073273234631
1029, -7.554495743673215
1030, -7.662614345909333
1031, -6.383424571773048
1032, -1.0343002664039886
1033, 10.460997259924852
1034, 27.743237488033174
1035, 35.29107053640996
1036, 32.494984511592065
1037, 26.85789908543302
1038, 18.239442165465334
1039, 5.226625249389144
1040, -2.4282045678205577
1041, 2.4932317059617617
1042, 6.042756851315971
1043, 2.149135025374335
1044, -0.5318286420024378
1045, -0.7720412709225002
1046, -0.9270020568351356
1047, -0.9926271368187827
1048, -0.36094295914517716
1049, -2.5082335384972794
1050, -11.338240563066392
1051, -18.14705001547327
1052, -17.978203502834504
1053, -5.377704526157004
1054, 15.978879168543017
1055, 16.225262620370586
1056, -0.15640768002572258
1057, -13.309000192460644
1058, -18.686385891022837
1059, -11.221070247691387
1060, -5.9010725806233495
1061, -10.030576029601889
1062, -12.644232024382745
1063, -11.668583065520806
1064, -11.180469631452297
1065, -8.280486208598631
1066, 5.265706034520463
1067, 22.922140146462425
1068, 37.50282434264932
1069, 68.37064042859015
1070, 125.63198582207883
1071, 176.18156033136574
1072, 215.50705621488555
1073, 254.00318336696546
1074, 290.1769482198222
1075, 318.34290697944743
1076, 344.96446269545936
1077, 375.54886355282406
1078, 379.11391955704516
1079, 346.4480209098267
1080, 319.7757440677524
1081, 301.3535537335281
1082, 265.64591665666467
1083, 222.16022660914518
1084, 191.1732160670897
1085, 153.4708564819166
1086, 95.54361760680354
1087, 55.764779988839564
1088, 36.92655910697067
1089, 14.463121451383813
1090, -10.986033550320371
1091, -23.82463658447523
1092, -27.27869715464294
1093, -25.469793203566496
1094, -19.000898563690043
1095, -8.565267637212855
1096, -2.428350642360556
1097, -0.9268526043535985
1098, 2.146617725945589
1099, 4.314894451525106
1100, -1.1039761222909874
1101, -9.630176615685286
1102, -17.915408211820704
1103, -21.222444114190694
1104, -18.022760346254472
1105, -9.295145227913736
1106, 2.2276065984274283
1107, 8.868539866288984
1108, 5.377887191943273
1109, -12.152122024817118
1110, -14.099192052900662
1111, 11.476148421305197
1112, 37.57474347261336
1113, 54.898593488893084
1114, 58.286875531709484
1115, 46.24527693900836
1116, 17.519969115997583
1117, 3.651509167996892
1118, 18.778092330588834
1119, 24.8927195049082
1120, 14.310887681875329
1121, -0.8113559213629742
1122, -12.11470031888075
1123, -7.719036367871922
1124, 4.9764188599010595
1125, 19.768544451156004
1126, 16.902660865937833
1127, -3.707611669125072
1128, -11.857043378454136
1129, -5.534566510551031
1130, 13.273796540051308
1131, 33.85389838575702
1132, 43.984375502640205
1133, 40.892801063127536
1134, 26.91467852695041
1135, 19.943403109907194
1136, 18.864076878331844
1137, 15.259668002519675
1138, 8.773528348838454
1139, 0.7018577522721898
1140, -1.146648570620755
1141, 5.1774308373292115
1142, 14.085661953710769
1143, 20.160518067792054
1144, 14.480619393825918
1145, 10.12277712160676
1146, 19.588288656459326
1147, 29.870341045382247
1148, 35.63803534099907
1149, 32.27212447192096
1150, 20.100738528175043
1151, 1.3023111700254049
1152, -10.605314517338229
1153, -6.335320469051112
1154, 3.012793929828149
1155, 12.315155599941818
1156, 11.261177637703668
1157, 3.0958699226455337
1158, -3.105493252465749
1159, -6.449329429860654
1160, -6.6270236785996985
1161, -7.495934333351215
1162, -7.565362104325004
1163, 4.154379162506984
1164, 21.444466236559492
1165, 30.028344595360295
1166, 32.9463946815099
1167, 31.685242055151093
1168, 21.78062234297272
1169, 6.968064489717108
1170, 3.58397703613241
1171, 5.584118325928557
1172, 4.296545492293944
1173, -1.3334787716808023
1174, -10.351429568755293
1175, -10.760145612335464
1176, -2.6172207315478317
1177, 8.989611184742216
1178, 17.826526722730932
1179, 18.32363716066652
1180, 13.720644860605717
1181, 6.30059429287553
1182, 1.9578833534092155
1183, 2.140752768945049
1184, 8.923044336973817
1185, 12.361334589722901
1186, 6.943476775427371
1187, -0.5220358305634818
1188, -5.153781232177835
1189, 2.821477840852822
1190, 11.070424198256887
1191, 3.647422363476835
1192, -2.038028126175732
1193, -0.04970998466660603
1194, 5.623838420623088
1195, 15.097525343264806
1196, 28.07877400926509
1197, 27.573568451186247
1198, 4.37300927737715
1199, -10.008754814760323
1200, -10.32475745688589
1201, -1.94915668795079
1202, 9.393965411405816
1203, 17.788521397284967
1204, 35.00671847886656
1205, 60.01160073118558
1206, 71.4838629978426
1207, 66.42898927063084
1208, 45.34030748785449
1209, 19.69561762302351
1210, 1.2254377471663247
1211, 7.698856876354739
1212, 31.960976521578914
1213, 36.44281235040103
1214, 27.295721907207508
1215, 13.912535255639341
1216, 5.811334701373653
1217, 4.671841035098396
1218, 0.2665230914788026
1219, -6.211520121982176
1220, -10.963028857015388
1221, -10.28936059454827
1222, -3.152529226502338
1223, 3.7522036288637537
1224, 5.942262055047422
1225, -4.066994443476233
1226, -15.586139850080144
1227, -20.62225067855934
1228, -10.190775643276766
1229, 8.972708745909358
1230, 7.966331195930479
1231, 0.983236141941461
1232, 3.3527364054039026
1233, 2.6073185908599044
1234, -2.5326252438046595
1235, -1.1844591108324494
1236, 1.2581300696883773
1237, -3.431055400072637
1238, -6.800333151412133
1239, -5.632039021702212
1240, -1.3152547608754048
1241, 1.331874542575406
1242, -5.509086078428027
1243, -4.392608068140817
1244, 11.39226094355854
1245, 22.273799789275245
1246, 25.633014281110945
1247, 23.31580498525227
1248, 14.544476204629063
1249, 3.611746178340809
1250, 15.960917586805635
1251, 44.62164963931832
1252, 54.586651105017836
1253, 51.363318263337305
1254, 40.71572444717344
1255, 27.334296348049293
1256, 21.287628030513133
1257, 38.85520131212547
1258, 54.4880189472035
1259, 49.64736267425519
1260, 51.03334433929285
1261, 59.707555438614236
1262, 56.5015137903863
1263, 50.325603104646916
1264, 50.586853574533734
1265, 54.03897763612508
1266, 60.383675902106006
1267, 71.79340870741771
1268, 75.78258161611302
1269, 60.46388698524402
1270, 37.12668240717221
1271, 13.792302182122285
1272, 6.780819725349829
1273, 8.659760271835694
1274, 11.086170334563803
1275, 9.391710839716552
1276, 5.144902045558865
1277, 8.850234346797151
1278, 21.87236834459918
1279, 41.75281496904313
1280, 46.30262753591796
1281, 30.892176427334334
1282, 2.6521708123136705
1283, -16.32580131136274
1284, -9.019353089762717
1285, 5.799594000837942
1286, 19.107184080598017
1287, 15.861971786329605
1288, 5.9707501623609005
1289, 0.25148422690654115
1290, 4.3350152431557945
1291, 13.280462055778116
1292, 7.621033735433912
1293, -3.7681057655436234
1294, -12.389099715100656
1295, -9.646234050137764
1296, 1.7740096343090954
1297, 10.582650943199724
1298, 11.975152195539522
1299, 5.1692275310542755
1300, 5.026680245307489
1301, 10.90377162146865
1302, 15.192241961372247
1303, 16.61744336812535
1304, 14.520175091874307
1305, 8.57343948258017
1306, 2.6030993533859146
1307, 2.943923881488672
1308, -1.5292005688138488
1309, -13.51275780671267
1310, -20.926727936673615
1311, -18.48796528477692
1312, -1.329652011902681
1313, 12.49078566056778
1314, 16.336349242623555
1315, 11.586603429089337
1316, 4.111583966798207
1317, 0.8934852163856704
1318, 11.772134010039053
1319, 28.71854430483836
1320, 23.52511553849331
1321, 11.00482870993892
1322, 3.2465051607453006
1323, 4.1614193744610475
1324, 8.938896248470655
1325, 6.543880561902142
1326, 5.610297153287092
1327, 9.790635366034621
1328, 16.285912592862815
1329, 21.68273758247392
1330, 21.4661202407201
1331, 10.442377165111111
1332, -6.605848573683943
1333, -8.335310180495298
1334, -1.9646269786283028
1335, 5.612087838085472
1336, 17.309709734706303
1337, 27.90901725407025
1338, 26.073336049163117
1339, 21.354604132901613
1340, 17.007084658816893
1341, -0.15468159582042063
1342, -17.596124208210313
1343, -16.9348289056295
1344, -10.411655772217273
1345, -2.2727812205941973
1346, 7.222051104141883
1347, 11.916930547270795
1348, 7.387789298818689
1349, 13.74835884762706
1350, 29.81352808390625
1351, 41.330687037797134
1352, 39.578635088498004
1353, 24.052077391529338
1354, 11.991411852456622
1355, 14.049388049804293
1356, 36.7248000894474
1357, 48.14899941122121
1358, 43.574358807770295
1359, 34.63790951869237
1360, 20.136433141186444
1361, 1.910608052242651
1362, -1.9890794438035755
1363, -0.6182202986024095
1364, -10.022530411320986
1365, -13.242120368159021
1366, -7.763288007327901
1367, -4.643831852121593
1368, -3.3500581663938647
1369, -2.7179164364872577
1370, -1.121217897302131
1371, 3.784500528315675
1372, 15.301153068214944
1373, 25.84004697634782
1374, 29.756053325493895
1375, 17.785415404084006
1376, 7.1526877572023295
1377, 11.231276355175396
1378, 14.574080228141383
1379, 10.65973372642793
1380, -5.644811906555788
1381, -13.660522456492345
1382, -7.404831311611133
1383, 7.603410238211836
1384, 22.703843381531897
1385, 28.761242837545524
1386, 20.824592097467303
1387, 7.78922330336286
1388, 5.664219369119564
1389, 2.4859082155542183
1390, -0.8668210143980559
1391, 12.364418127660883
1392, 28.48540335259031
1393, 36.85896880392738
1394, 49.025112873766375
1395, 51.964070363924975
1396, 27.7826693239233
1397, 12.53287097810039
1398, 8.76465701469533
1399, -8.943254078095606
1400, -18.756463313331324
1401, -11.080238858258326
1402, -1.4262954901223566
1403, 14.42355390383932
1404, 40.65634847009255
1405, 48.32664727615065
1406, 39.74277603999076
1407, 32.5981650989188
1408, 38.42576612842436
1409, 52.29588645019044
1410, 42.16823966993434
1411, 18.31404058150997
1412, -4.524817098025096
1413, -8.107156850748424
1414, 6.974030987102196
1415, 34.052286908415226
1416, 32.26287404455843
1417, 9.709403017337763
1418, 10.962597102597783
1419, 19.023955236146094
1420, 22.636179547112306
1421, 17.612803223345963
1422, 3.005681534634732
1423, -15.85746149182819
1424, -6.35487636221751
1425, 22.267201012157102
1426, 46.06431745279269
1427, 36.17523448008001
1428, 5.280943243115871
1429, -0.6436010529705527
1430, 0.7394074905316756
1431, 6.701625402197578
1432, 37.24782704048539
1433, 48.598378203641914
1434, 19.17494665162303
1435, 7.8840380987669505
1436, 6.509077388412379
1437, -4.66769881489995
1438, -14.029625604073772
1439, -14.42171178137255
1440, 1.9577200290721066
1441, 16.32975300661724
1442, 24.031171275021507
1443, 33.34360050700752
1444, 34.35999691069651
1445, 27.05146352467841
1446, 33.96248572253512
1447, 35.94720390042744
1448, 18.45835882000256
1449, -0.564559061771206
1450, -9.51893718248084
1451, -0.5097675230301775
1452, 9.513539838113275
1453, 16.415201587285765
1454, 18.262291470418404
1455, 19.10974674057411
1456, 20.009694414084606
1457, 20.018267536588155
1458, 20.20944207019261
1459, 18.923598346867493
1460, 8.567866872115928
1461, -4.794521561754891
1462, -15.853440263689436
1463, -12.912900380497149
1464, -0.6260160293518311
1465, 16.575121148995322
1466, 44.449169573016206
1467, 64.23427500200592
1468, 54.51131395367247
1469, 34.33432172217658
1470, 13.948556046756494
1471, 4.357774710189915
1472, 7.821558738078011
1473, 21.18955444789094
1474, 33.13309237178237
1475, 35.410034245846646
1476, 28.13526468914597
1477, 21.333045279401176
1478, 11.832550344791343
1479, -0.01132607205477143
1480, -10.653451774792075
1481, -5.295429117985805
1482, 20.2388527965486
1483, 34.0631850739112
1484, 39.89058965968138
1485, 42.755099509485035
1486, 32.66906855594516
1487, 22.226329575325508
1488, 24.49242169778654
1489, 21.83714144506621
1490, 10.127617138825826
1491, -8.205620088443993
1492, -14.664790661192455
1493, -8.994670588920371
1494, 2.4335305691874964
1495, 15.23434861728174
1496, 23.44654887459251
1497, 20.468757484983144
1498, 23.475538351501427
1499, 30.10991245857349
1500, 23.35793606896732
1501, 16.229205866087113
1502, 11.767986685506685
1503, 4.933241291358172
1504, 5.760740865169737
1505, 12.256755029324722
1506, 6.874107498359081
1507, 5.240370664982493
1508, 9.111892627977795
1509, -2.4355127532153347
1510, -10.429022421565605
1511, -7.852448619577444
1512, -5.128057860016725
1513, -1.234691461706234
1514, 3.011106908112879
1515, 0.5646020523151947
1516, 5.762173925095567
1517, 23.787527942247607
1518, 35.67404195262111
1519, 39.415307722640364
1520, 37.33707028968388
1521, 39.2911377673247
1522, 44.333835105721164
1523, 49.163651061539895
1524, 45.66071477104424
1525, 30.80463555418214
1526, 7.795459906556289
1527, -2.729338030321287
1528, -3.5205141801866375
1529, 0.15101341990657602
1530, -1.5347808594335675
1531, -5.476055010316941
1532, -4.776493067928641
1533, 17.911823978813118
1534, 34.16761406235173
1535, 27.002629722802567
1536, 15.016926422244524
1537, 4.57299598340046
1538, 1.853118329935569
1539, 17.255655532639594
1540, 20.30897271040112
1541, -0.7656501061649124
1542, -13.972526203615416
1543, -10.661743004255186
1544, 4.80836201692955
1545, 3.0933145057638285
1546, 3.4062744857465077
1547, 15.819843087241225
1548, 31.602923360043633
1549, 36.63919598092116
1550, 23.796218247036904
1551, -6.018307007547037
1552, -15.209282556755625
1553, 3.0389791501559102
1554, 22.280600176004327
1555, 20.25893427276924
1556, 2.7797967470780804
1557, 3.689540193550556
1558, 13.036594114139007
1559, 16.426119518115456
1560, -4.251994041907892
1561, -19.876784739942423
1562, -17.044142808307924
1563, 9.955134951571154
1564, 19.617203796306967
1565, 1.971122642200271
1566, -34.26768605835764
1567, -45.47702518628603
1568, -30.922404240080596
1569, -5.185382752461919
1570, 3.0029452103597123
1571, 4.266044976036028
1572, 13.683308899363283
1573, 25.45382292364934
1574, 36.907501035639825
1575, 47.708076123645014
1576, 62.707765033077294
1577, 99.68214289584648
1578, 153.54008186763804
1579, 192.78615328712317
1580, 218.13826322291607
1581, 233.39794512684898
1582, 243.91803636737995
1583, 244.6849021894352
1584, 232.70352327216324
1585, 206.13303862432758
1586, 164.17373393027356
1587, 119.24424164582638
1588, 89.49924217078365
1589, 52.392328423775325
1590, 25.345251507098737
1591, 21.9413322814587
1592, 9.292999495622325
1593, -3.083526431372775
1594, -5.363786747994709
1595, -12.776750857371553
1596, -12.970512324538959
1597, -0.27926346976960303
1598, 13.617875129674076
1599, 8.889834379436252
1600, -6.45615271646534
1601, 2.859408183849382
1602, -8.85715530559014
1603, -29.102347724151286
1604, -15.7136424584005
1605, -13.392751441129121
1606, -5.824481330936351
1607, 26.736321435111904
1608, 17.65097091404641
1609, -2.9046334042468516
1610, -6.524437243486773
1611, -2.1295800388477346
1612, 12.735882721572807
1613, 27.84846490172754
1614, 14.769675049710031
1615, 0.8402976783268059
1616, -0.7970602562149907
1617, 12.621867897492393
1618, 23.802921053236787
1619, 31.786584811609373
1620, 40.27183192323173
1621, 42.13752224778182
1622, 28.5710213535815
1623, 3.168417467567906
1624, -4.443514518981374
1625, 8.876428140766393
1626, 32.775609377464434
1627, 40.644576384450374
1628, 34.61595304977277
1629, 16.58684145350753
1630, -5.866231779993086
1631, 3.7226059754095786
1632, 13.157171244714846
1633, -0.6695511559005354
1634, -10.418133596355574
1635, -4.43754285276259
1636, 14.994087054071997
1637, 32.99607525884494
1638, 45.71145210187797
1639, 47.46351146718939
1640, 36.586058122262784
1641, 42.087827650570716
1642, 29.099517451361635
1643, -12.304782973913916
1644, -21.84357116222077
1645, -6.235312255874305
1646, 14.29241128966396
1647, 9.937043848540725
1648, 5.8617067456086716
1649, 9.733334431510684
1650, 16.654445143142084
##END=



