##NAMES=
##LOCALITY=
##RRUFFID=
##CHEMISTRY=
320, -17.61664312996436
321, 0.5193942695968872
322, 14.004654952186229
323, 16.305073973720482
324, 12.055787785309803
325, 9.393591918917537
326, 7.096615841856874
327, 0.5816139773378382
328, -9.559487805864592
329, -7.214012606813412
330, 11.79513184490861
331, 31.719989304519913
332, 41.69469783696104
333, 45.14005098282223
334, 46.38516002416645
335, 43.6071963176114
336, 31.742936949019168
337, 12.671444590585452
338, 1.11328987020579
339, -1.860712416529168
340, 1.7984356654687872
341, 11.81374498625928
342, 23.554562961177453
343, 31.20466707078458
344, 34.90587345038148
345, 34.92076490705949
346, 30.874310328235424
347, 21.276496207134187
348, 7.066103261412991
349, -0.8462095235440756
350, -0.9071640920897153
351, 0.6058707475249321
352, 0.6130537944127354
353, 1.3158444020677962
354, 5.27624313160004
355, 11.028276145335894
356, 13.57224041528707
357, 13.150636389822466
358, 11.974918525549583
359, 10.144271850328096
360, 4.963231843169524
361, -3.791388004037799
362, -8.554692441909992
363, -4.500811068425264
364, 3.9560022136320185
365, 11.062781198268112
366, 15.764998511897375
367, 16.332055373256026
368, 12.482828554772368
369, 3.169566567169113
370, -10.505588654896655
371, -14.978326034782185
372, -5.674293410686914
373, 6.07443788511091
374, 12.990027280374761
375, 19.44310770857055
376, 29.54491500594213
377, 41.46807224824897
378, 49.72372365441197
379, 53.6557328536328
380, 51.43767908276914
381, 42.79523068575827
382, 28.237936591242942
383, 8.04260569009557
384, -5.853698121364687
385, -7.305428871206004
386, -4.565816823817386
387, -8.814133384135857
388, -15.819038086336604
389, -13.213555050577725
390, -2.7389181829580593
391, 1.456694613900254
392, -1.5910334476052412
393, 0.1866589328687951
394, 10.575116531651929
395, 14.210237942063031
396, 1.9398401960975207
397, -12.232987144607705
398, -13.02067927535245
399, -7.590179941920724
400, -12.066985836257118
401, -22.428009392593594
402, -16.589421884253625
403, 5.591685943726134
404, 15.105143572192446
405, 4.336086392008838
406, -1.649459656860472
407, 8.212336147435053
408, 22.820369651845795
409, 30.348504520046845
410, 35.38245126218362
411, 46.10472167916578
412, 57.163676848170326
413, 50.33946555060538
414, 28.710366087305374
415, 24.23201869667855
416, 40.36160532360327
417, 58.94030154126813
418, 69.31312746193453
419, 78.61117102805565
420, 91.26822310486523
421, 103.3579867225103
422, 110.16027074784233
423, 111.51204693699128
424, 107.07290980979633
425, 97.48675279129338
426, 85.40219575192259
427, 71.39365283202551
428, 57.80344472173192
429, 45.402973912517155
430, 44.098766179429276
431, 55.76533524772958
432, 63.299386906924155
433, 57.781750106710206
434, 47.29570122943642
435, 42.58403161819842
436, 39.52027252772132
437, 28.18016697701023
438, 10.829301005253456
439, -0.10494746028552981
440, -4.865818185790431
441, -7.3124506890644625
442, -8.459991204647395
443, -8.984683538325498
444, -9.132773664410252
445, -6.2233392606967755
446, 1.863847085688576
447, 9.513184107098368
448, 8.524417816850473
449, 3.142723732908962
450, 3.0080387864659315
451, 8.172444730970255
452, 18.16730039582808
453, 31.20649360274001
454, 41.30891323413243
455, 47.11821388333101
456, 45.324038050840954
457, 35.02592678427345
458, 26.225286430143115
459, 24.534022674863536
460, 22.289257364810055
461, 11.95058367554293
462, 2.1082526645864164
463, 4.539087535202725
464, 12.854076013888971
465, 6.798644858854914
466, -9.976796919549088
467, -14.383735140457247
468, -5.916190701136657
469, -4.68544027722055
470, -14.718569256693627
471, -18.075859951847633
472, -7.626884619889552
473, 3.9945525230327803
474, 8.474593735937106
475, 7.380488585129115
476, 2.5105770818163364
477, -2.2263901084602367
478, -0.2913056858337768
479, 4.829985266136646
480, 1.6425462895349483
481, -6.941447502644223
482, -0.5842970986250293
483, 21.887211963601203
484, 37.25334500607187
485, 40.25957175653093
486, 40.25433183178848
487, 40.871051419171636
488, 35.95971209876552
489, 21.61028728722158
490, 5.3642159274500045
491, -4.249661570621356
492, -8.611354885196306
493, -8.885148311443572
494, -6.43745610461383
495, -4.655687927357576
496, -3.53949213535725
497, -2.848780682186316
498, -2.368144820626185
499, -1.0904858087460525
500, 0.8985755718535984
501, -1.8129749310260195
502, -10.928164359779203
503, -14.673521753499244
504, -7.179199787256039
505, 0.30919386410278094
506, -0.788421440275215
507, -2.670055435167342
508, 4.4728341480335985
509, 14.380351808847081
510, 14.254071548373759
511, 11.694279236403872
512, 30.39777758791115
513, 68.02286956036232
514, 94.48428820755043
515, 106.98666095732506
516, 110.11049844391482
517, 105.24812347847137
518, 98.51855137091206
519, 91.86474543740451
520, 85.39082534436011
521, 79.13651776076313
522, 71.61278846746927
523, 61.75034197298692
524, 53.64371940476167
525, 57.25123793249077
526, 63.91593072512569
527, 68.01184644424666
528, 67.81019561096127
529, 59.18779245077485
530, 42.854474104647124
531, 22.20283683632033
532, 2.3393515941565965
533, -4.251694174401564
534, 2.0382967740720233
535, 3.783544823882494
536, -2.469965838042299
537, -6.151857810516958
538, -3.713926583422108
539, 4.7044746905630745
540, 19.726291108270743
541, 38.16783660826786
542, 54.594864951749514
543, 65.52871885437708
544, 67.11359085111371
545, 61.504022902761335
546, 52.20600949181926
547, 42.966112707093544
548, 42.35824469335694
549, 46.43511158882802
550, 41.07458668386698
551, 27.7574057149086
552, 18.70349943320207
553, 16.186867391154465
554, 10.165244222309411
555, 0.9408612481115597
556, -2.8477146446721235
557, 0.5484353631427439
558, 1.2700903662389464
559, -4.321624420104399
560, -6.133286153836252
561, 1.3264007102930009
562, 7.6401056674721985
563, 4.278521941735107
564, -2.7572776287411216
565, -7.271374047089012
566, -8.903868670531665
567, -6.5881167214865854
568, -2.0370579041109522
569, 1.1215775413984375
570, 3.0423846527141905
571, 3.5170648103753592
572, 2.585852755201813
573, 0.42678471534873097
574, -2.7699765367856344
575, -6.630899703964133
576, -10.652130435433264
577, -9.235874938055531
578, -1.4831230861223048
579, 7.784222346798288
580, 16.904635243357916
581, 21.64883150386231
582, 20.413737165336897
583, 13.060788740310272
584, -0.3900748627779649
585, -10.872177883939003
586, -13.367928206629585
587, -9.503675443944758
588, -0.1261710832177414
589, 11.415795885914577
590, 21.036267294340178
591, 27.62417519352357
592, 31.249877894690144
593, 31.946878856655076
594, 29.783943193986033
595, 25.85019785437862
596, 23.118690149962276
597, 21.411411116021554
598, 19.498865943994588
599, 16.361433212061
600, 7.797907465322169
601, -3.016544814905501
602, 0.5985431679428075
603, 18.875062476592575
604, 25.980803603390086
605, 17.593193008397975
606, 9.779231633305699
607, 6.627407016838788
608, 0.44049341810386977
609, -11.894163746196682
610, -16.996441171107108
611, -9.014570983310477
612, -1.7630298989552102
613, -2.7762398536378896
614, -2.206946209344551
615, 7.1314023595541585
616, 19.400379513724147
617, 27.722547966712682
618, 32.28338643277766
619, 33.29860038430752
620, 31.77024926144395
621, 29.159305836352814
622, 24.36888105787557
623, 15.399631753991343
624, 6.1269799759938905
625, 5.804328054910002
626, 10.084051619027832
627, 5.957870672327317
628, -1.9274773413694675
629, 1.0943239551033912
630, 11.288268508464625
631, 7.7738335592030126
632, -6.225497963514954
633, -5.353670073059675
634, 9.477385493154543
635, 12.425303020714637
636, 2.1365253461904103
637, 0.9763533033992644
638, 11.004650657981529
639, 10.765771992005284
640, -3.026866366801187
641, -7.842727613994612
642, 1.3203275540840878
643, 7.358148246921246
644, 5.27133463609789
645, 7.421485868685977
646, 18.85701349067176
647, 31.476344192040415
648, 41.72401032881044
649, 45.636899963818905
650, 41.102713650187525
651, 33.95441812306444
652, 27.933902853293148
653, 23.748841034715497
654, 21.92634669281051
655, 21.510342133152335
656, 21.668296819734223
657, 17.927787737280596
658, 5.73180448645644
659, -2.5080079611580004
660, 6.4086969208733535
661, 20.614202296036638
662, 22.04596740484112
663, 15.86253073253738
664, 10.233758666461654
665, 4.102349762031281
666, -4.146045891235644
667, -9.162235456425606
668, 0.8395757294474606
669, 16.59772625512187
670, 14.57106806533875
671, 1.4708727306178844
672, -3.9006470728982094
673, -3.825943604134409
674, -5.442955056713799
675, -7.811772924629167
676, -6.595936945096582
677, -3.052755555526801
678, -2.480527057976815
679, -2.667551011604246
680, 5.950186818664406
681, 22.337403392636134
682, 34.675721811163385
683, 40.47223674531324
684, 33.9457524284926
685, 17.350616435149732
686, 4.8187808039115225
687, -1.0645192642564325
688, 0.4059316726070392
689, 9.278646949883296
690, 24.81533798933333
691, 43.41446262804402
692, 50.18914285755045
693, 44.433361940074064
694, 38.408105297297425
695, 33.58005839762109
696, 24.260843140299585
697, 10.499423405884045
698, 2.3708559658712147
699, 0.29952158720561783
700, -1.3448221737198764
701, -2.9925179963388473
702, 3.465534934475727
703, 18.878630544325915
704, 26.66175618349007
705, 24.070418212358163
706, 23.40335277088434
707, 27.227881624037764
708, 29.460369823511428
709, 28.612112962490755
710, 26.103757291947204
711, 21.97548154967535
712, 12.214685456527604
713, -1.9078222506414022
714, -7.713588141636137
715, -2.2020029737359437
716, 8.91825605656959
717, 24.096394506804245
718, 32.27764302540436
719, 31.308802130244658
720, 32.910250973559414
721, 39.721167385742774
722, 39.47936005857446
723, 29.25415215708381
724, 20.16953201538945
725, 15.108606086120744
726, 6.71442992673019
727, -5.48279108179986
728, -7.858081812442379
729, 2.709302870739066
730, 11.50203418008914
731, 13.534347538949987
732, 10.28653674602765
733, 2.822746398205254
734, -0.9607314543081884
735, 0.3401750288076073
736, 1.0251814158900743
737, -0.44512071195867975
738, -3.1148648059393054
739, -6.860965234040123
740, -11.219495819505482
741, -15.499556107557964
742, -10.655819580676962
743, 4.449120557430433
744, 11.858929617038939
745, 7.762690384800408
746, 2.7306765692214867
747, 0.0847981212700688
748, 3.3555070191341656
749, 12.630825551658745
750, 18.0036099290146
751, 17.667814201605324
752, 14.392844464540758
753, 9.122299430324802
754, 4.437599348720141
755, 1.7090569025008335
756, 3.4388622967385345
757, 8.791809538326106
758, 7.785718051701224
759, 0.5778732933572428
760, -2.0449503531526716
761, 1.1411999910028499
762, 9.123521960578273
763, 19.178597287309913
764, 19.406315971740696
765, 10.366767298873128
766, 1.8789261767742573
767, -4.277744278125738
768, -7.09390278356932
769, -5.365234406319814
770, 6.03197959134468
771, 23.002612740515815
772, 25.268394200301373
773, 16.20112717592474
774, 11.52351069807446
775, 9.922375661389196
776, 4.463856823008882
777, -0.813594802818443
778, 3.8171504164220096
779, 12.524691377917861
780, 9.28683620443826
781, 3.6386859581466524
782, 14.000706759987679
783, 32.579524107661655
784, 40.729694871339234
785, 44.47626568318947
786, 54.21679094515912
787, 63.53441223120626
788, 63.0371371185247
789, 58.045488605049286
790, 55.30079780027063
791, 45.77828524857705
792, 19.705547704918445
793, -5.217365564970805
794, -16.93005601985169
795, -17.972624352286857
796, -9.572590439370742
797, 4.4072581714081025
798, 22.084533157647
799, 40.770352151826955
800, 55.70135406457166
801, 69.05930846498677
802, 81.61963863057508
803, 85.33825709925895
804, 76.65208391009173
805, 54.000942949721775
806, 18.58439745813166
807, -3.9119388569706643
808, -9.151422938707583
809, -6.857926505719206
810, 0.2634732356468703
811, 8.821577918286494
812, 17.468614760180117
813, 16.785482737268467
814, 8.09614730698695
815, 7.637823425916849
816, 15.844578216562695
817, 24.043353864130495
818, 30.71453348506384
819, 33.724625532085156
820, 32.991932772435575
821, 28.846479579329753
822, 20.808295749184254
823, 7.645763848088791
824, -4.944387046025895
825, -8.166251580403696
826, -7.229992082678564
827, -10.551346999004636
828, -12.253979043909567
829, -4.103095829325412
830, 6.65212813467042
831, 12.56460223340764
832, 17.650482834770173
833, 25.675171455156942
834, 27.083582702780404
835, 15.985161240214438
836, 7.53422012851388
837, 10.086223227630853
838, 16.376760417980222
839, 22.044664107328572
840, 23.996591460675063
841, 21.315018675947158
842, 15.144606952760569
843, 6.557319056673805
844, 1.9524942101511442
845, 1.0793742343998929
846, -1.506607707322928
847, -4.880475215515162
848, -0.8080526387202553
849, 8.264686155951495
850, 9.825190540385847
851, 3.9541787662019487
852, -6.217126961181293
853, -14.769671965511407
854, -9.088143091186339
855, 8.487623028795042
856, 34.73670785421973
857, 54.34476760394091
858, 50.82469153697821
859, 35.39393567900288
860, 17.622640762830542
861, 4.489572809174206
862, 0.624321293727462
863, -1.6912153474386287
864, -5.950964729692714
865, -8.378625124401424
866, -7.181917711359802
867, 3.2930746733982232
868, 23.194603487295353
869, 34.6718605787305
870, 34.690143169697876
871, 25.674489060551878
872, 10.99965120134857
873, 3.1643859276841795
874, 3.0329557172267414
875, 12.134864238265436
876, 25.001525431576283
877, 27.127573201288214
878, 23.836254474915222
879, 23.736239854436917
880, 19.190135283349264
881, 1.9934526397350965
882, -9.250593371960349
883, -2.114067412235272
884, 9.455479353475312
885, 18.748588619283055
886, 26.506389389732703
887, 32.42445143343048
888, 25.44361394328007
889, 5.211342209655413
890, -7.590083210773628
891, -10.96184974409698
892, -8.863229673070691
893, -3.855271287540745
894, -3.2847465591280525
895, -4.083886106511727
896, 2.6105489599381144
897, 13.453782617750676
898, 21.90783063919207
899, 31.90667811794765
900, 49.861406290123796
901, 59.51872220039013
902, 48.376376952206556
903, 41.26678178877046
904, 50.6321867818815
905, 52.30108584425852
906, 38.523627854903225
907, 25.41848862213328
908, 15.646525692229716
909, 0.3412380909503554
910, -18.600611928949093
911, -20.735945251203702
912, -9.36516604831013
913, 0.5965621000136707
914, 9.2560723731508
915, 17.695919217560004
916, 23.724336043228504
917, 25.657880230509363
918, 23.29445893453294
919, 16.554095376377063
920, 9.954224077677281
921, 7.067255100615512
922, 8.000918104738957
923, 12.778700784630928
924, 19.714185622803143
925, 26.076652035334064
926, 26.579151494176585
927, 24.42321901501691
928, 34.85062439463172
929, 50.21861182757766
930, 47.97976915346544
931, 32.85260928116304
932, 14.27183071793388
933, -1.8704129754601126
934, -12.585102046722568
935, -9.366816861303505
936, 13.412318692381177
937, 35.33567776761038
938, 45.35828718629955
939, 42.76774150356823
940, 29.780580052086407
941, 21.327938951185843
942, 17.209787904876066
943, 6.864365454657673
944, -4.636809205959253
945, -5.205735537273085
946, -1.4945627651472932
947, -4.358484953694642
948, -3.012092061109797
949, 13.095416808250775
950, 30.672420403099295
951, 39.721567111279455
952, 40.88841968074303
953, 35.28401611483514
954, 30.454840531452646
955, 26.957364850618887
956, 18.936115097233596
957, 8.996813562304851
958, 8.306352761263497
959, 9.89905747613193
960, -1.3802409670242923
961, -10.192549135877925
962, 0.4491327754531085
963, 10.152782424040652
964, 5.1149442271685075
965, -0.20708806741959052
966, -0.7532873684031074
967, -4.956587609828148
968, -12.735097563399904
969, -11.245833109263913
970, -2.2814732670804005
971, 2.9469344469325733
972, 8.32376913954431
973, 22.336663196671452
974, 35.43985661830493
975, 37.79949283041287
976, 30.834621766839973
977, 15.842245640874808
978, 0.24512220482165503
979, -12.048145323696644
980, -13.383219170174016
981, -4.380659689858476
982, 4.715651107534086
983, 11.59386895572834
984, 10.857012921051592
985, 7.260655202470389
986, 9.317052938630695
987, 12.589162460764328
988, 13.654059132486964
989, 7.762886864425127
990, -5.124100983658536
991, -8.1355000969902
992, 0.6288962413232184
993, 4.420440730354585
994, 5.462380508819024
995, 18.899169436174816
996, 40.31823079999822
997, 54.99414348512255
998, 71.89930749841824
999, 100.085374621141
1000, 112.85931870947525
1001, 96.93639164628257
1002, 77.89391675695288
1003, 63.65798345377698
1004, 52.071653223654266
1005, 40.31278536987884
1006, 20.00302410276754
1007, -0.11109915267161341
1008, -7.614060692219482
1009, -10.197104310761006
1010, -15.606202302963993
1011, -13.640626535201136
1012, 0.24640435804985827
1013, 4.63998452166652
1014, -3.3557068629929745
1015, -1.5143459459627593
1016, 8.73011880881495
1017, 10.984309862129066
1018, 14.1015786733401
1019, 35.83867626009578
1020, 62.30005372544565
1021, 81.73473535029325
1022, 94.33802408099928
1023, 99.41061775653043
1024, 88.6787333742177
1025, 64.28309818970138
1026, 47.3194298846679
1027, 36.5142982334778
1028, 21.3347530525607
1029, 7.692536753876993
1030, 0.1839105181670675
1031, -1.9643646290664947
1032, 0.7675948139476532
1033, 4.633423154043612
1034, 8.34562105238956
1035, 10.138401205450464
1036, 8.918482216653047
1037, 1.7715135590206046
1038, -5.4821705858771566
1039, -2.810360324229805
1040, -3.2186505231657065
1041, -18.257345987933604
1042, -24.39521085621891
1043, -12.441760878885361
1044, 1.5272170699417984
1045, 14.756634266945184
1046, 27.237726778166234
1047, 30.697658747531477
1048, 7.053296142412364
1049, -17.16501192915939
1050, -15.835924955172231
1051, -9.770900060597342
1052, -9.27285757085474
1053, -10.68782834693502
1054, -13.444312106150392
1055, -19.128369462745013
1056, -22.927096446126598
1057, -12.073416534721673
1058, 3.8738444709156283
1059, 13.24123061183218
1060, 12.194596667809492
1061, -0.3660403686526479
1062, -15.11861858984821
1063, -28.089123059201484
1064, -27.186233347604684
1065, -13.463435014860806
1066, 7.715782817896979
1067, 35.98422821275835
1068, 71.67958067717973
1069, 119.62420244585883
1070, 184.83378166068223
1071, 250.8779596205486
1072, 313.19519677538347
1073, 357.09856172809396
1074, 383.7077211965884
1075, 398.9692263280658
1076, 405.9368349068068
1077, 407.30475018469497
1078, 399.14767809019986
1079, 378.4799321441774
1080, 335.68083103073195
1081, 274.75910528245413
1082, 217.77424623009483
1083, 162.5009635261108
1084, 101.72101825895288
1085, 53.78570552822384
1086, 20.42073665095768
1087, -0.07131426237901906
1088, -9.352455093553544
1089, -9.585628199525217
1090, -4.07394569034841
1091, -0.63694036803372
1092, -5.561306470739964
1093, -26.666673035542317
1094, -40.888655337786986
1095, -36.74814015421089
1096, -26.0760715828485
1097, -12.164214875563403
1098, 1.6410221794676545
1099, 10.155072154223262
1100, 1.8127524635945065
1101, -7.922440988051676
1102, -7.757803651906443
1103, -7.074806712086001
1104, -7.407810232566817
1105, 2.4983348934060814
1106, 20.94009605237534
1107, 35.83243201362893
1108, 46.70810864747182
1109, 53.32557973444318
1110, 41.010773563680914
1111, 6.991304697085752
1112, -10.029708811291812
1113, -6.077972826640689
1114, 9.645577113291665
1115, 27.176388677924933
1116, 29.298948121338753
1117, 21.143743891092072
1118, 6.984401532681204
1119, -2.0194594858901382
1120, -3.693457030246691
1121, 2.3397373296440946
1122, 10.147407426889004
1123, 7.408999568987156
1124, 2.6298440654998103
1125, 2.538965841208892
1126, 4.482586995998872
1127, 7.429648432657132
1128, 9.219248189909877
1129, 10.301372970740886
1130, 12.09183428995857
1131, 13.438011172210508
1132, 13.481018935192424
1133, 15.153696043424361
1134, 17.758989069433255
1135, 11.851489474701111
1136, 1.5235594100247454
1137, -0.7902001335671685
1138, -2.0541523967765443
1139, -8.03299216959249
1140, -2.123936442774493
1141, 17.86650645172972
1142, 25.10907983605489
1143, 21.355058293735738
1144, 19.85860521580298
1145, 12.055513934977398
1146, -8.614306436499419
1147, -13.092314933963053
1148, 4.150183920737163
1149, 17.69484445639614
1150, 22.606512648005946
1151, 17.692009827391985
1152, 7.937051933325847
1153, -0.8160886430964638
1154, 3.268786895381936
1155, 20.360263601646466
1156, 28.22903885082428
1157, 25.31256375072371
1158, 14.119709339221572
1159, 3.166914501095789
1160, -1.1161149713702798
1161, -0.5943941109878779
1162, 4.2954895819018475
1163, 13.799693303245249
1164, 23.745248120938186
1165, 28.080064109612977
1166, 26.203657656404403
1167, 17.87819868541942
1168, 3.8088946554112226
1169, -11.376756158154421
1170, -15.982446839506565
1171, -11.752337247321066
1172, -1.4700236156611481
1173, 7.382210452147774
1174, 12.59859683290233
1175, 19.841392009068613
1176, 25.66998506328673
1177, 18.67470950961274
1178, 9.243630035312208
1179, 8.326364688866079
1180, 14.236609813621726
1181, 26.794540684312324
1182, 43.618776712417684
1183, 56.638750323983686
1184, 51.805248088841154
1185, 35.64008479432778
1186, 13.748499341258821
1187, -0.7020437463238522
1188, -7.351762924409286
1189, -10.256753315162314
1190, -10.737427311734109
1191, -9.543869649594853
1192, -1.2207601898699068
1193, 14.869569086372849
1194, 25.20974448174138
1195, 26.07440975798795
1196, 14.220687453867868
1197, 2.0260126573057278
1198, -1.7298736843861207
1199, -1.091352521348199
1200, 4.809430558057102
1201, 22.48501740178608
1202, 35.42785517345169
1203, 24.59901719563959
1204, 17.2181990120921
1205, 22.991829695000888
1206, 20.28335644470144
1207, 15.937797008396956
1208, 30.439676392206366
1209, 41.95983501063074
1210, 38.26739378170646
1211, 33.40501969018442
1212, 31.636630845641548
1213, 35.53170302658009
1214, 35.090393484542574
1215, 20.689740394757564
1216, 7.632727583195447
1217, 0.17580076126250788
1218, -11.18995448657438
1219, -17.295102369259666
1220, -1.9326293190893011
1221, 9.448986953670783
1222, 6.62194103956972
1223, 13.20048054140625
1224, 23.935435644731115
1225, 20.075133181248475
1226, 18.333406206197196
1227, 27.83045754002319
1228, 16.029322410396162
1229, -11.208400951402155
1230, -13.689640996566823
1231, -9.800392157887472
1232, -17.95477667187083
1233, -10.283651406254876
1234, 13.605245226479155
1235, 15.931401657794368
1236, 5.992612707136004
1237, 1.889088762555275
1238, 2.560914070426179
1239, 7.395339824391385
1240, 15.054606212308954
1241, 26.842586745077824
1242, 42.23067491730899
1243, 45.867990695445314
1244, 33.35765293354552
1245, 28.877451229945336
1246, 31.13383143864121
1247, 28.80746174083515
1248, 27.46797379806594
1249, 30.128986905624743
1250, 30.565478568670187
1251, 26.82685233398388
1252, 17.472413950718874
1253, 15.89924869013521
1254, 29.392734995710498
1255, 43.07030523613662
1256, 50.680664385811724
1257, 44.14667492066883
1258, 37.255488455852856
1259, 40.9618532185782
1260, 41.00560012409642
1261, 33.38033540245965
1262, 17.93770510862305
1263, 2.1468224958910014
1264, -9.10525524238642
1265, -3.4023819388830816
1266, 18.119745869041026
1267, 39.03644635506271
1268, 50.28007325507906
1269, 47.21814608533464
1270, 46.55080370589053
1271, 48.79003347932189
1272, 38.264442985708456
1273, 21.928610063501083
1274, 8.326824727818803
1275, -0.5621654195551855
1276, -2.715806609007359
1277, 10.12742988896889
1278, 22.53346495136293
1279, 17.665972850924618
1280, 19.897983877459183
1281, 27.961405889612706
1282, 13.620481778056273
1283, -0.6958045839835449
1284, 6.070626749831945
1285, 3.6200056837824377
1286, -7.567973684749859
1287, 0.7076825037081562
1288, 9.693000739913032
1289, 2.469917345625163
1290, 2.66993465999235
1291, 9.050529717060726
1292, 0.9896102227046413
1293, -5.484437661783886
1294, 1.129446635414297
1295, 10.437062476641813
1296, 17.20972549227963
1297, 15.498667826828068
1298, 12.20921375142666
1299, 12.246117255608624
1300, 17.341336633724723
1301, 26.293480750411845
1302, 38.46392424627197
1303, 28.850110511827324
1304, -6.942770096288768
1305, -13.234030509618378
1306, -3.1828477146159457
1307, -10.907382512819822
1308, -11.373017415816776
1309, 0.8479738539022037
1310, -3.1742328896311847
1311, -5.172012552541219
1312, 21.478235181027003
1313, 33.023732713670825
1314, 20.942577677995814
1315, 11.661228737590363
1316, 4.745382901313178
1317, -1.0310897669357928
1318, 4.348587224024186
1319, 16.336858566731735
1320, 13.467123297238004
1321, 5.25644724682661
1322, 0.31790603048034427
1323, 1.9865076382229745
1324, 10.225245524040474
1325, 22.61949707094027
1326, 25.81571020610545
1327, 16.581170179282026
1328, 12.258676930081947
1329, 10.503917893001471
1330, 5.095453456048972
1331, -2.1077726122134663
1332, -10.266059432637348
1333, -16.64402129191467
1334, -10.134616408209467
1335, 16.14410247646788
1336, 27.83790376424963
1337, 22.657760471828624
1338, 14.40945653449262
1339, 5.266145115336258
1340, -1.8961984817999564
1341, -0.27484379777456525
1342, 3.436634214638161
1343, -1.058033482865767
1344, -0.43891339697370313
1345, 6.044038029588819
1346, 3.8251464510638016
1347, 2.9100652845536388
1348, 11.690347089584066
1349, 23.58621964179406
1350, 31.607445219220153
1351, 24.62674601069125
1352, 12.333363079590526
1353, 0.8551778646854018
1354, -5.040839473118922
1355, -2.738444268050671
1356, 9.51569010236949
1357, 11.817581064548676
1358, 6.1553650486030165
1359, 14.229427162196771
1360, 18.9652140181679
1361, 11.558750413932103
1362, 7.573773141675019
1363, 5.3859025938677405
1364, -0.007475006992535782
1365, 2.2569196591507534
1366, 10.363501607275111
1367, 4.766511148493464
1368, -0.7604426673071885
1369, 2.9605932067827325
1370, 6.087556251931574
1371, 15.555703530072378
1372, 44.977002530878735
1373, 57.72004051067688
1374, 46.31150936941208
1375, 33.22182040512348
1376, 12.232680294980582
1377, -17.697125239973502
1378, -28.02314724912685
1379, -18.290572347726993
1380, 3.522259736686692
1381, 25.681696633715774
1382, 41.206762913772536
1383, 46.50698655324595
1384, 46.72371165054483
1385, 46.0907137004865
1386, 44.11218332143062
1387, 40.88568212722021
1388, 36.04538046587504
1389, 17.309604059482353
1390, -5.574310631486469
1391, 3.233493172822591
1392, 18.737772154092
1393, 23.801312146963255
1394, 37.1615433874631
1395, 40.93632116697904
1396, 9.927543510195619
1397, -4.945449686762913
1398, 2.2937985744019898
1399, 11.401206427861553
1400, 23.139249361895963
1401, 34.05484169766942
1402, 31.20398190421747
1403, 16.70183557280029
1404, -3.2535883776795345
1405, -8.463276884089964
1406, -4.233082822815959
1407, -8.177632145944472
1408, -4.275871723233195
1409, 11.35360755599595
1410, 28.005509655451533
1411, 37.150607283500904
1412, 35.17079306366418
1413, 28.60036631343405
1414, 20.043381594251514
1415, 12.518577038026478
1416, 19.064825391110844
1417, 29.00221740582174
1418, 14.687395314758533
1419, 10.56776295057989
1420, 24.106359384968755
1421, 14.82500503456481
1422, 2.7647151737078275
1423, 3.893075189706906
1424, -2.394768493712945
1425, -7.567632432244636
1426, 3.3384301522157784
1427, 8.083953371080042
1428, 6.256879345188281
1429, 11.998192245344853
1430, 8.047770959962918
1431, -7.340093552444841
1432, -12.830509003913221
1433, -11.759523708927645
1434, -7.63826503983978
1435, -1.5210708958832129
1436, 5.382380457341014
1437, 11.846398612326084
1438, 16.864605265333694
1439, 17.773503849384497
1440, 10.750190146571413
1441, 9.71349811854202
1442, 17.13100977217846
1443, 22.014999280513393
1444, 19.970807165745555
1445, 10.339794499719346
1446, -0.03579582503130041
1447, -2.3843489336077255
1448, 8.973192920609108
1449, 25.581843032431152
1450, 38.612389589287204
1451, 40.846611447597525
1452, 37.7788428755041
1453, 29.042885724946927
1454, 12.29043535734877
1455, 1.0489039790077186
1456, -0.13779401505439637
1457, 11.023575595116199
1458, 6.459151349257809
1459, -15.764210001438414
1460, -18.85025596022183
1461, -11.192278962211503
1462, 0.5226607381498525
1463, 18.84076377470342
1464, 24.19924904724985
1465, 4.577318959979493
1466, 4.940126472729389
1467, 15.370721808181997
1468, 13.804184036184324
1469, 24.298418881038515
1470, 38.91232879050517
1471, 37.65918664805304
1472, 42.68331129411558
1473, 44.44459760092673
1474, 6.621594319624592
1475, -14.96713007022845
1476, -9.432854932498003
1477, -8.460444718510416
1478, 5.971020916508223
1479, 36.27879391068586
1480, 45.40591744501103
1481, 40.38236849325358
1482, 29.39592975853816
1483, 17.143939730276088
1484, 14.441526641531027
1485, 25.31867369941665
1486, 30.384850507145075
1487, 23.969379446423545
1488, 5.562268083574736
1489, -5.9189610271319
1490, -3.749931404110157
1491, 13.973201766021248
1492, 11.598439671254482
1493, -4.152499592108825
1494, -9.068403896967993
1495, -4.96064299249565
1496, 7.283774954044702
1497, 25.309319958432297
1498, 17.52683751763152
1499, -6.773680235893835
1500, -6.397800291662861
1501, 8.256118250537384
1502, 27.33978988571539
1503, 33.649024966915476
1504, 30.00116890587242
1505, 22.646853144024362
1506, 24.03883215060432
1507, 19.349515649432078
1508, 5.610192757985033
1509, -2.599706015506399
1510, -4.660624142101597
1511, -2.4534252198523063
1512, -2.128815634219791
1513, -1.5769913482079119
1514, 3.5562359729508444
1515, 23.663739487926023
1516, 46.342952684500005
1517, 55.74905692234529
1518, 22.578554575706903
1519, -3.0071922159099813
1520, 5.653379399230062
1521, 18.012538487460006
1522, 29.7274345436731
1523, 33.043036358144036
1524, -2.402521294604867
1525, -20.503151968368
1526, 6.19534144018553
1527, 26.998953246775272
1528, 37.50333067223278
1529, 36.202899256727505
1530, 10.24535068727414
1531, -6.502766178135062
1532, 0.67433558768289
1533, -0.7451156928159435
1534, 5.734665714017865
1535, 29.50184236335258
1536, 47.43605984677765
1537, 45.19637708852201
1538, 21.52756899256042
1539, 3.3678528175605607
1540, -2.171396294746046
1541, 3.779731326997762
1542, 9.730151504430069
1543, 0.4782875183325359
1544, -21.038701397240857
1545, -17.785991201712022
1546, -0.8355733347236765
1547, 17.799639691221728
1548, 21.209625793648456
1549, 19.38098120460768
1550, 20.53277934441803
1551, 31.291291895832956
1552, 43.07032692054827
1553, 47.06107608068305
1554, 31.83718482187578
1555, 13.301764386870218
1556, -2.0331254604107016
1557, -18.999199504326725
1558, -21.958601680392576
1559, -10.900935068275203
1560, 1.8830640453718388
1561, 10.112784629959151
1562, 8.934903601080578
1563, -4.100979352586137
1564, -10.03674874143735
1565, -10.986727577221473
1566, -16.629639485493954
1567, -19.624025958536777
1568, -14.079394276828452
1569, 4.988089434036965
1570, 32.23270031988591
1571, 44.45546706696837
1572, 27.326926461063522
1573, 24.94602961047144
1574, 33.96514732588389
1575, 52.042505173383915
1576, 99.95146505228877
1577, 137.4361077253527
1578, 149.60228931791175
1579, 168.38887243521594
1580, 178.5632138809176
1581, 180.1290819133385
1582, 197.23883155154203
1583, 206.1392860799151
1584, 200.8703506689219
1585, 189.90422490081323
1586, 166.02301688964099
1587, 132.34303068692975
1588, 97.74037416637293
1589, 61.63213184069923
1590, 34.45378091787529
1591, 16.803237957787587
1592, -6.28960585001596
1593, -23.866896445544853
1594, -23.031831834540753
1595, 0.24500431316005233
1596, 15.440819616673252
1597, 8.058447194150403
1598, 0.7704501164801059
1599, -4.628789498399328
1600, -2.9631474200768935
1601, 16.50072820126843
1602, 26.528391753292
1603, 23.48864041206025
1604, 16.030789224153978
1605, -2.8935448192796684
1606, -24.165507125350132
1607, -33.34240537085793
1608, -9.9762766101951
1609, 16.5281694079963
1610, 22.743142089083676
1611, 17.47373335684415
1612, 3.9529498226872875
1613, -6.921220376088513
1614, 5.307909562650821
1615, 11.0462480641811
1616, 12.417690576980021
1617, 29.108092071093097
1618, 41.96365356032538
1619, 55.44905871465676
1620, 74.05368978143065
1621, 71.86321152662413
1622, 56.77132766798263
1623, 34.9998571456274
1624, 2.143272577292919
1625, -10.802951186895143
1626, -1.7572183163856607
1627, 8.82783441715037
1628, 23.984826372529824
1629, 25.538058512626776
1630, -0.4556725492077476
1631, 3.7488850142028696
1632, 19.09531259378423
1633, 24.86895089966106
1634, 28.33490265344153
1635, 20.574800844742185
1636, 5.785899160149256
1637, 2.5172384269324084
1638, 0.3990838628151323
1639, -3.4747462835505303
1640, -7.075108809756102
1641, 0.7074107397641001
1642, 10.471536153193938
1643, 13.615550042986797
1644, 10.98263588260761
1645, 6.676754698785317
1646, 0.05880202139223911
1647, -11.62759697738693
1648, -13.617525716224918
1649, -3.226391751204119
1650, 13.423845583343109
##END=



