a,b
320, -3.316973901809888
321, -4.298925680674984
322, -7.32843200640491
323, -10.410364416733955
324, -10.036049792468475
325, 0.5394560213594559
326, 18.001756930288593
327, 24.930970093606902
328, 20.678285503089228
329, 15.633677660904596
330, 12.477212543900805
331, 15.465156827493047
332, 26.546842900656884
333, 41.422283043223615
334, 56.61137121290676
335, 70.75734125442796
336, 80.15379931280268
337, 85.00382514433204
338, 87.89240022282365
339, 89.28256432456419
340, 89.52457879276335
341, 88.74985974377114
342, 86.021595468746
343, 80.56895745660177
344, 75.9925783069516
345, 78.95928907739699
346, 87.7336467225864
347, 94.9477041090122
348, 99.75460597384836
349, 101.2041808402214
350, 99.26513904938793
351, 101.8363993639864
352, 112.98788106950587
353, 125.90957485058016
354, 132.8911686234719
355, 133.53610291534415
356, 126.91070062994504
357, 114.21693154527475
358, 101.73459273809567
359, 90.82029660623175
360, 87.74923011663941
361, 94.30581093230239
362, 99.36789899336554
363, 95.94757515868014
364, 86.88536226473298
365, 76.06990099941459
366, 65.79529832081744
367, 62.40469254409754
368, 64.72518386124011
369, 63.667445488369594
370, 57.97499856779541
371, 51.16225935683133
372, 44.46611441015557
373, 41.594283702460416
374, 45.10230010010855
375, 47.44313876523438
376, 37.51858103661334
377, 19.911471164323302
378, 8.322896496726116
379, 3.641094015791168
380, 0.3767285559388256
381, -2.1353889637375687
382, 3.8097095607663505
383, 21.374459685085185
384, 30.84135551722511
385, 19.117906418258826
386, -0.16801424475215754
387, -7.780923602574148
388, -7.026064445037264
389, -5.21191301158342
390, -3.1365066280286555
391, -3.639370657174368
392, -7.122072396330168
393, -12.425628482383217
394, -19.48170337329384
395, -20.412618391854267
396, -10.1866364267662
397, 4.311090505077573
398, 14.515947484839216
399, 18.889938726372748
400, 13.884391522874921
401, 1.5970086857905699
402, -7.755146785887973
403, -13.366833757080713
404, -10.654035763315278
405, 1.5479986763775742
406, 11.876701054045952
407, 15.404771246568998
408, 21.795212466276553
409, 40.164282080364956
410, 69.49692738507747
411, 100.69694867973521
412, 131.03793828968765
413, 151.83855903575795
414, 163.34270347617485
415, 171.5356935787986
416, 178.3838705679559
417, 197.657959310141
418, 233.82952260982347
419, 271.57203951789006
420, 301.35616624718614
421, 322.1848842088907
422, 332.85957843865754
423, 334.3737730471039
424, 328.93997258375066
425, 319.1700054472558
426, 315.2771524980203
427, 315.38863239478405
428, 296.08236257154476
429, 253.974180608579
430, 222.38974432188024
431, 214.26041449150898
432, 213.3357282713232
433, 208.19695001329546
434, 195.68733919632905
435, 171.6115419641028
436, 136.5154975950113
437, 91.7444277496761
438, 42.79378070782286
439, 16.889614332792007
440, 11.838292257372814
441, 9.46480783118841
442, 5.71306466490978
443, 1.3467794567086457
444, -3.545343818558649
445, -0.08744508691415831
446, 18.42434082755699
447, 41.55775742474498
448, 56.29062481219216
449, 62.68639941413676
450, 60.96822226474751
451, 54.77941330517842
452, 57.796514348692654
453, 69.24090382568193
454, 74.81385203829132
455, 71.74249323310005
456, 59.009466784306824
457, 36.55497032301628
458, 18.530832732540148
459, 12.87796519595986
460, 19.61666171278921
461, 36.211009013522926
462, 51.832096658721184
463, 47.79348683186299
464, 29.387661786443005
465, 12.84568093361213
466, 0.09140088497997567
467, -4.433293402646541
468, -1.798958291261897
469, -2.8119889612544284
470, -9.865058266747837
471, -15.749709326802531
472, -17.852176330688962
473, -13.144799589821105
474, 1.0032484673711224
475, 17.38826832869063
476, 26.00682005256749
477, 24.839344393482406
478, 10.033493771632038
479, -10.579466061060884
480, -13.365376211988405
481, -0.18163483324087792
482, 12.969238614904953
483, 23.615757531727922
484, 31.619675332468432
485, 37.08830439645271
486, 42.933223526662914
487, 50.28167400010034
488, 56.85772324913978
489, 61.21439075539638
490, 61.28331846344281
491, 54.872597409090304
492, 45.72909635957103
493, 40.35521978591714
494, 38.570785301740216
495, 39.56401262074769
496, 40.44661781464174
497, 28.831734685797983
498, 5.992773663640946
499, -7.623656638474131
500, -9.67499122795698
501, -3.966684378023274
502, 8.856080070370353
503, 27.40685447830947
504, 52.18306774527855
505, 72.6421862481061
506, 82.72685032748723
507, 92.2860588973931
508, 113.76452656452284
509, 141.25660143190044
510, 163.0612549312923
511, 179.09801190109556
512, 190.05983288732023
513, 197.40726280416902
514, 207.70144028208688
515, 221.8607836012102
516, 240.58473972646698
517, 263.1907678794737
518, 278.4007742676745
519, 282.8445311784385
520, 282.9557223172187
521, 281.8112639355113
522, 281.7273917141338
523, 284.3674256351792
524, 282.31527037765136
525, 267.2508504869784
526, 243.95266795071302
527, 220.58864674680672
528, 202.66886805981994
529, 203.74979050524325
530, 218.04918711732762
531, 221.5594942245607
532, 211.58644226247316
533, 185.7379808327596
534, 146.18794743097124
535, 115.98836820857832
536, 100.31807808893291
537, 103.8085478101898
538, 114.29792307533808
539, 123.84378374543758
540, 128.41166530463033
541, 126.80042277490611
542, 118.12291685442096
543, 108.43763535320386
544, 104.4599171550094
545, 105.58799832451678
546, 110.83666079124532
547, 116.20588378172533
548, 112.45240779817732
549, 103.65916651122598
550, 104.48340727155482
551, 111.82392931056529
552, 105.61047352284504
553, 85.33685285666616
554, 65.52255667361851
555, 48.704948322526434
556, 31.92884683043485
557, 14.721295130906128
558, 5.342411840389559
559, 5.312022835493281
560, 7.17057297111478
561, 7.1039380388601785
562, 7.028459639853281
563, 8.383104038472084
564, 15.032774383731066
565, 31.90361501259349
566, 46.34495261238044
567, 39.13286270009894
568, 17.706629660869567
569, -1.9998342170742944
570, -16.57381631490898
571, -18.657773112094674
572, -10.499191238739968
573, -1.2057630280755802
574, 8.03325710314266
575, 11.259490119157817
576, 8.29594352517779
577, 4.6329095441010395
578, 1.5005607880261778
579, -0.08268774470479912
580, -0.10067931836965727
581, -3.492844318365769
582, -12.10707119998824
583, -13.8096105904242
584, -2.373165787675134
585, 11.040524139334593
586, 18.45772737229572
587, 17.386352324159816
588, 5.589884614576022
589, -6.30097240858413
590, -5.930243984081244
591, 3.803323804629599
592, 18.685185032112713
593, 32.763974124528886
594, 33.60022883153715
595, 23.06909824594777
596, 7.399391182282216
597, -7.52071184302622
598, -2.870007449787863
599, 18.00628107700095
600, 29.911283784992065
601, 30.96160881895139
602, 29.044374578140378
603, 25.988391661111564
604, 25.872256578266388
605, 29.44592692246897
606, 34.92692396296661
607, 41.024554429282034
608, 34.3269069125713
609, 10.824489411240393
610, -6.268412262610127
611, -7.236068269281986
612, -2.5766373551837205
613, 2.2603882181742847
614, 8.760330874396004
615, 17.409825865689527
616, 19.65732129519529
617, 7.720170767763648
618, -5.191484082070474
619, -4.236334463420917
620, 1.62063166632106
621, -0.27935924943312784
622, -2.845176813922535
623, 6.99194955101666
624, 24.695104311346768
625, 39.02613934036026
626, 48.3084434818511
627, 49.124127489038074
628, 42.41381971698729
629, 31.861857242103724
630, 19.980631481580986
631, 15.607530486792257
632, 17.981392430731375
633, 19.00383111047222
634, 17.42009576048258
635, 12.13943136088028
636, 4.26409051944438
637, 3.6798072269280055
638, 11.526111725954252
639, 20.80954479869115
640, 29.4956999551041
641, 32.59522234027554
642, 28.906312437839006
643, 22.315034451638894
644, 14.446699968601024
645, 11.50456911591391
646, 15.63576298909993
647, 15.89058032691355
648, 7.32765168019796
649, 0.7643548271330474
650, 2.2235306456259423
651, 11.280744824852718
652, 27.298652663979738
653, 40.81688149240654
654, 44.775516382325804
655, 40.6474695917027
656, 29.71531934484392
657, 15.089205178817792
658, -0.06191098900262659
659, -9.010698633562242
660, -4.6810774851715
661, 3.469044007973025
662, 2.4070008030930694
663, 0.5681512495420975
664, 10.61964985447321
665, 27.13919693071375
666, 40.432397403583764
667, 49.48318962735948
668, 52.64043255809975
669, 50.433130845029154
670, 44.131157495819025
671, 34.660445319435894
672, 24.191532229240238
673, 13.279808602628691
674, 3.17060460372295
675, -4.728876981371741
676, -8.124421573715153
677, -6.4444244848027665
678, 2.8289644565538765
679, 17.145419559601123
680, 22.739866340660683
681, 19.441134501970737
682, 11.591041971686991
683, 3.1002798988770337
684, 9.503310637791856
685, 29.273145910104176
686, 47.90338737048705
687, 61.99163610853475
688, 63.69371937839378
689, 53.229065193572296
690, 38.295698847046424
691, 22.47470452288144
692, 20.345165519840975
693, 31.451338174549164
694, 36.14806883782103
695, 32.18309826206587
696, 29.371730999359897
697, 29.110303596816266
698, 27.238160076626627
699, 22.8577574724477
700, 15.77137235111195
701, 6.436726963147066
702, -0.0848697843912305
703, -2.9251872545651167
704, 2.18588567664483
705, 16.302868819388095
706, 33.483988610405504
707, 50.41318245464572
708, 47.756642867766004
709, 23.72629594777709
710, 15.097435648875035
711, 31.69159079264182
712, 51.334601252734956
713, 68.11751546866071
714, 81.38248795018308
715, 90.03527079097012
716, 82.99348033298611
717, 58.8782375036767
718, 41.725921680885676
719, 37.98665320526243
720, 37.3806389322076
721, 36.1783093283143
722, 26.7014727063015
723, 7.962133039698529
724, -1.1597739471853856
725, 2.760675517195068
726, 3.574053143593119
727, -2.7502243274025204
728, -3.63699250380796
729, 3.6459311920493747
730, 3.272209210449091
731, -7.978932273515511
732, -8.89371636288115
733, 5.192575098457382
734, 11.60001324473933
735, 5.122711934909603
736, 7.570846748779331
737, 23.118292935697355
738, 26.3564558834496
739, 11.988662587566523
740, 1.6444257525558896
741, 0.35303709023082774
742, -4.006819785152857
743, -13.484449341270192
744, -12.879137500119214
745, 0.021141857180737134
746, 7.211483865525224
747, 5.3865517627282316
748, 7.895822890735417
749, 16.450365138404322
750, 18.822512783345246
751, 13.265224152363317
752, 7.716114982765248
753, 4.102324638301525
754, 4.543545079680825
755, 9.780763063506129
756, 21.763806619727347
757, 38.56022914740424
758, 45.14723343440255
759, 40.28501612457376
760, 32.050848168613356
761, 22.388681778616046
762, 14.722631041325712
763, 10.520470791297612
764, 15.569635773897971
765, 25.321253007144605
766, 21.050492856045366
767, 8.331867444922864
768, 20.563898221256295
769, 52.1355127770139
770, 71.53933319533735
771, 76.78339567483545
772, 71.48026112043044
773, 54.39662408049935
774, 20.724985002957965
775, -16.13697128505919
776, -18.910447260522233
777, 1.95656674099655
778, 16.56721267241892
779, 26.04044402753425
780, 37.06804987915393
781, 44.60921998552158
782, 37.745089037854996
783, 24.695623737833102
784, 21.14055051270543
785, 21.15116859506952
786, 14.541274929054453
787, 13.643068895841225
788, 34.13956526177253
789, 59.191150875592484
790, 69.30400936688511
791, 67.61036305481002
792, 57.56205616147827
793, 44.28449184638521
794, 32.534358689472356
795, 26.68654544015226
796, 30.11557761310587
797, 31.747067203355073
798, 24.221404867686488
799, 18.96516810689809
800, 24.54848999858723
801, 38.01516909233533
802, 58.29356175281873
803, 72.00201534417283
804, 73.30288923435137
805, 61.20386012450899
806, 36.725919532882926
807, 18.48488744912902
808, 11.97468707639382
809, 14.78680667378012
810, 23.242399103472053
811, 24.818516573193847
812, 18.0811326094813
813, 11.834887196453565
814, 6.957058700993912
815, -0.45777078244645963
816, -8.44361096325565
817, -6.449895827653108
818, 3.1110618937236723
819, 6.956192911733979
820, 7.382179823707247
821, 15.97846235238012
822, 25.598581701890453
823, 16.816142622541975
824, 0.40238491556647205
825, -0.09284850481526519
826, 6.410850018235124
827, 4.231803337887868
828, 5.380221955161687
829, 26.09932997654414
830, 40.31992452110035
831, 20.592450290292618
832, -0.14380860928577022
833, 5.025382593046743
834, 10.665523743441554
835, -0.11047683645529105
836, -1.9297269276585212
837, 17.33280901036005
838, 35.480641746308265
839, 43.69907250598317
840, 50.057972373506345
841, 56.23844611639515
842, 51.95161246472844
843, 37.40979795547719
844, 34.2898362297683
845, 45.49975330635516
846, 62.62194464004233
847, 79.24975938605166
848, 73.6324384739014
849, 48.860897442513306
850, 23.222922294808996
851, 1.6282842082032403
852, -6.878611610316057
853, -6.1629783468033565
854, -2.9907310411663275
855, 2.6797133779359683
856, 11.275892701376506
857, 21.183408902345946
858, 30.859430332624925
859, 38.652412444690526
860, 43.04367735409687
861, 33.92859389599789
862, 5.823273842711842
863, -12.563713972945607
864, -9.530361098388312
865, 2.1707463472134805
866, 18.503458714008048
867, 34.01494225807937
868, 45.38944065855003
869, 38.834064251817836
870, 16.860341413009337
871, 6.687691287186226
872, 9.733716807266774
873, 14.538185035479273
874, 19.895573432334913
875, 28.293281938160362
876, 37.48550746641831
877, 42.55791156443729
878, 45.87584271633841
879, 51.219743355445644
880, 53.81067064209765
881, 48.514806722404046
882, 43.28482171215046
883, 43.98939284434118
884, 44.787661137347186
885, 42.060447891498825
886, 26.655032272030894
887, -2.2599794710140486
888, -13.290361165848026
889, -1.5669795402855016
890, 12.581500737343049
891, 24.690534458214188
892, 33.12310434591291
893, 35.18454027958387
894, 22.37462022436239
895, 7.166122805479972
896, 22.41894314402134
897, 48.02536033547767
898, 48.037782199527555
899, 33.369202648615556
900, 17.808500644778178
901, 6.294780871044168
902, 3.4807459123844637
903, 13.451796106082838
904, 36.90617700852408
905, 47.51894705354243
906, 37.36824241056274
907, 29.419753119987035
908, 27.167551878225368
909, 13.840694567713399
910, -7.254361996807347
911, -10.242836643862574
912, 1.3381875106965708
913, 10.804083465134681
914, 21.910142416861618
915, 41.2880215103778
916, 54.532649330308686
917, 42.34668877951435
918, 30.01772413218896
919, 39.03415896243769
920, 58.05433730785444
921, 79.66047651420877
922, 84.8338053230641
923, 68.43673992523554
924, 51.12729439099121
925, 38.703764741213035
926, 34.39990684671784
927, 39.817095898845764
928, 58.99247469298871
929, 81.08080255111736
930, 78.25004907265338
931, 60.073007052676076
932, 44.320786415511975
933, 29.08162368422836
934, 12.241464919792179
935, 7.673677806289106
936, 22.363727684112746
937, 36.09003297280424
938, 41.368234015701546
939, 46.70485248386012
940, 52.42802661680389
941, 46.07010807549159
942, 30.12106003050758
943, 22.270331102524324
944, 19.41335365320583
945, 9.734391985037746
946, 3.0487834844825557
947, 13.316234139703283
948, 26.707204658229784
949, 27.763065672773337
950, 27.186695585426605
951, 31.024592455240054
952, 35.347777732712984
953, 38.936651122121475
954, 43.834242920509496
955, 49.87636839462584
956, 53.924438129026385
957, 57.752530485977786
958, 68.00425051835828
959, 78.48675179359725
960, 76.66823977261811
961, 64.62738398961255
962, 45.16837247116473
963, 27.970722999456484
964, 19.1902843320795
965, 11.361080385253445
966, 1.736351670078875
967, -6.369318639121957
968, -12.02921080220949
969, -10.82787142414054
970, -3.6794003311547385
971, 4.695681008146948
972, 10.883947091669143
973, 8.49316088562091
974, 4.57290105863558
975, 7.5097747919116955
976, 13.599512485409377
977, 20.47861602533294
978, 22.432344539494352
979, 18.467441807566047
980, 18.349448459118776
981, 22.004599842187872
982, 19.26037070158509
983, 10.613690938952004
984, 0.6275772158496693
985, -7.811417113519838
986, -11.534296732723305
987, -3.576358572191566
988, 22.530413464707635
989, 44.4629766015164
990, 51.77047222527881
991, 53.79081178221759
992, 52.282708619671666
993, 41.79991269868242
994, 25.556935227766644
995, 16.71875820399191
996, 12.237173660249937
997, 4.583832543321023
998, -1.9145957636906132
999, -3.7579555468751096
1000, -2.0046104440689305
1001, 2.6295161518160057
1002, 5.000187012181414
1003, 4.751182274648727
1004, 9.64551833963651
1005, 19.725864030105186
1006, 27.752167559365716
1007, 34.982171948860014
1008, 44.871853716897476
1009, 55.062811472052545
1010, 63.004086261871635
1011, 70.02658190580632
1012, 76.90282907449864
1013, 83.94707244857364
1014, 91.47081819093819
1015, 100.75435617763242
1016, 109.28480574554806
1017, 108.37304779403803
1018, 101.62850836029929
1019, 96.53464236743366
1020, 91.87718903274617
1021, 86.46498554350501
1022, 82.03538972458682
1023, 78.65795904631977
1024, 68.23006367091102
1025, 48.98375271626401
1026, 22.778977797834614
1027, -0.8430526280917547
1028, 2.0287750735014924
1029, 18.576405846557464
1030, 28.81714853691119
1031, 35.15953861897469
1032, 38.52216242654549
1033, 23.801528755309846
1034, -7.635310913698049
1035, -8.131177504317748
1036, 16.58875200347711
1037, 15.57809315538725
1038, 1.6308427648623365
1039, 6.2973361347726495
1040, 16.35129304719294
1041, 19.525254620483793
1042, 24.464698548206343
1043, 32.6090219927155
1044, 20.059459996123678
1045, -8.743635070842629
1046, -11.315277840659292
1047, 2.2953042891140285
1048, 1.2374886019129008
1049, -8.224287375969197
1050, -18.831130059463703
1051, -20.82094803937798
1052, -10.01680396325537
1053, -0.9751226030848557
1054, 2.3178573041500385
1055, -2.6175237568209013
1056, -11.131789979329824
1057, -11.048781027931454
1058, -0.40756855316794827
1059, 23.116773032031233
1060, 41.09865841499595
1061, 41.63079483306683
1062, 52.50809296375155
1063, 81.6883737352614
1064, 124.79238434439594
1065, 176.46885664246884
1066, 223.91634271675957
1067, 268.03924987077744
1068, 310.6024999864617
1069, 357.35105933105433
1070, 410.09659501752867
1071, 455.91616816034866
1072, 492.1616328866194
1073, 522.1004182970137
1074, 546.4494245556443
1075, 565.9221142964589
1076, 576.473301218246
1077, 573.9606420989894
1078, 554.7696579198573
1079, 518.6738261783503
1080, 477.58077037042995
1081, 433.5564063129609
1082, 384.53307151440777
1083, 334.69812361936465
1084, 291.5823678639799
1085, 251.66455262609134
1086, 212.3712286718769
1087, 178.1773959122147
1088, 147.93495651159492
1089, 104.93811274390009
1090, 54.15598850073275
1091, 22.1626294955945
1092, 3.473420550051742
1093, -8.124197612210537
1094, -9.370022730050096
1095, 0.10818194988314644
1096, 0.8540893393392253
1097, -7.799544684800367
1098, -7.962734502550347
1099, -3.6256848322943824
1100, -5.624753667466393
1101, -8.100818508844213
1102, -6.442607502301598
1103, -6.668961902680621
1104, -8.584106733612998
1105, 2.580754754538475
1106, 21.519143384443623
1107, 25.79145737446879
1108, 21.048386833260338
1109, 15.205267531849586
1110, 7.755684599457936
1111, -0.8981118597621389
1112, -5.337801403517005
1113, -6.0237182493299315
1114, -7.251068841702818
1115, -7.063061972574133
1116, -1.823482746311356
1117, 3.7502095985964843
1118, 6.81323292649995
1119, 10.91053140883173
1120, 16.144763853388895
1121, 18.777923965967148
1122, 17.61253874647491
1123, 11.216716086734095
1124, 2.0093257064233967
1125, -7.215683731268882
1126, -6.6348244749738114
1127, 5.61474293628271
1128, 22.248326460933868
1129, 37.10388253599558
1130, 40.863661001834544
1131, 42.66251106822847
1132, 50.51384756645075
1133, 63.13309715255923
1134, 76.69620369564723
1135, 73.26063048227957
1136, 57.19533811074143
1137, 44.220443320584764
1138, 40.6778045775543
1139, 51.19216499074196
1140, 64.08132266504231
1141, 73.21481899228525
1142, 69.2412928148201
1143, 61.64275764883928
1144, 75.04559298558092
1145, 86.98827967636294
1146, 77.24905528006184
1147, 63.396589831550045
1148, 51.39417640436591
1149, 38.260599987124124
1150, 26.00062800615069
1151, 19.8450579862847
1152, 11.785620832002223
1153, -2.736954834217613
1154, -7.08576668203591
1155, 1.6465338345935834
1156, 10.718365025127468
1157, 14.214745436712292
1158, 4.523418445611242
1159, -5.72999581728368
1160, -7.739490352064422
1161, 7.266356887379061
1162, 33.95078807818322
1163, 36.805912960869364
1164, 23.34896912504314
1165, 11.874278066380612
1166, 1.032360065642024
1167, -8.23169472072118
1168, -0.03079714687123669
1169, 21.733948062679474
1170, 28.453863038899954
1171, 25.970111810761864
1172, 24.727497025319963
1173, 29.623495109530268
1174, 40.613881215127094
1175, 42.02075317546678
1176, 38.27057479309315
1177, 47.42369224850995
1178, 56.088131070250256
1179, 52.23727801191421
1180, 55.09932932204924
1181, 66.27409224571352
1182, 61.703201964508025
1183, 51.66080730847921
1184, 59.433429178786355
1185, 57.31893084513672
1186, 30.650311723638424
1187, 10.418002843452769
1188, 4.635773870671301
1189, 10.79607456541953
1190, 23.27123314553228
1191, 35.59852151926066
1192, 34.96424702587365
1193, 19.098785593731236
1194, 5.5664997687329105
1195, 1.8471198013219237
1196, 16.01332051314421
1197, 23.894519693858683
1198, 10.366953470009094
1199, -1.2681021490559488
1200, -2.469223908322192
1201, 14.771224542918162
1202, 38.42269865169783
1203, 52.54171997083654
1204, 53.52743470871178
1205, 42.94500470000912
1206, 37.49513449080678
1207, 38.47605637059837
1208, 43.4265891381217
1209, 39.45425864637309
1210, 20.955250968427436
1211, 14.650893336438912
1212, 21.679991750407908
1213, 26.459126355365015
1214, 23.37925440288518
1215, 8.553345490007587
1216, -3.154581721710656
1217, -6.425918501712658
1218, -0.3563416958893413
1219, 13.141443880671886
1220, 29.577821821822454
1221, 33.32948772287955
1222, 20.507921891502292
1223, 17.64327675457571
1224, 18.858678897176333
1225, 1.260269775527604
1226, -10.930799097077397
1227, -3.8838200357488404
1228, -4.331163559288825
1229, -11.55797522616217
1230, -3.7570349776385683
1231, 6.440495161259378
1232, 5.947322619422266
1233, 14.918091106819247
1234, 33.2235343497955
1235, 34.1269718423473
1236, 22.129251868469055
1237, 7.140417174588492
1238, -1.0780061230279898
1239, 0.10262683703581388
1240, 8.696485469945856
1241, 23.34426157011876
1242, 39.61433707396213
1243, 44.31623311373551
1244, 34.46399502842905
1245, 35.61884691362252
1246, 43.70070207265576
1247, 41.32049981872592
1248, 50.741761694933075
1249, 77.32153566130182
1250, 101.25330019329158
1251, 115.57224168463858
1252, 113.7517902572356
1253, 108.90324485057431
1254, 111.35340827134564
1255, 123.10847162110326
1256, 142.9738697308419
1257, 166.28693115039323
1258, 176.69589899572566
1259, 163.3775504933128
1260, 159.55009249919794
1261, 169.3334241722455
1262, 177.33062602773748
1263, 177.8781240167225
1264, 166.8636763559955
1265, 147.45761524324712
1266, 126.6127874780741
1267, 123.67101741225747
1268, 125.48463709241469
1269, 118.73964385615727
1270, 122.0753115691225
1271, 135.80213885649823
1272, 141.56098000688053
1273, 146.6416862768774
1274, 157.70165470160418
1275, 142.60547809580635
1276, 104.520570788324
1277, 87.70337794550528
1278, 82.43441499576875
1279, 75.39030319750964
1280, 68.4815833165635
1281, 59.88477072965043
1282, 41.84946102395179
1283, 24.940293404414206
1284, 22.06552287215618
1285, 28.580470077633436
1286, 38.203758256983974
1287, 42.53081517703117
1288, 42.104527191894476
1289, 37.60940521644329
1290, 25.9212498129732
1291, 8.270752265800638
1292, -8.835897095510973
1293, -10.300206218388666
1294, 13.08975264223045
1295, 30.67412337570545
1296, 35.77426214777552
1297, 30.270796586994038
1298, 17.66926431423235
1299, 2.1439941983846893
1300, -2.5759729422620694
1301, 0.3338337123761903
1302, 0.25529894190981395
1303, -0.47672466444237216
1304, 0.6800634590847494
1305, 10.308621595826025
1306, 19.594961338618077
1307, 12.739334379615912
1308, 4.467167273716086
1309, 0.43394040678253987
1310, -4.851058592556001
1311, -8.389678376131542
1312, -5.591634048619653
1313, -6.183459858360038
1314, -10.011649336971686
1315, -3.9947586621628943
1316, 11.45561567807681
1317, 32.39944206670543
1318, 34.75657928269948
1319, 18.898489393505315
1320, 3.333507348328112
1321, -2.6271030563355
1322, 4.6427128059606275
1323, 10.713805140838303
1324, 13.200333684361112
1325, 13.204699398171897
1326, 13.19685703619075
1327, 15.050226546290332
1328, 21.84017045769542
1329, 25.613666054615578
1330, 16.013452953524848
1331, 8.803129755219743
1332, 6.373321378165883
1333, -2.0879346658243776
1334, -10.203839957878017
1335, -11.870807434755307
1336, -4.132864105255749
1337, 6.884444922070088
1338, 4.793247834277054
1339, 2.205656626683549
1340, 7.03028121585271
1341, 19.688325654205983
1342, 32.17682849905327
1343, 32.6082504515457
1344, 16.26783617451042
1345, -8.535490649735266
1346, -9.434960424717701
1347, 4.827797398628718
1348, 24.46971692097395
1349, 35.97620970004232
1350, 35.9868612871885
1351, 24.382403146114484
1352, 29.247563637871508
1353, 55.274069462633406
1354, 58.14953247946096
1355, 47.223010919109356
1356, 39.58547177929745
1357, 26.947366202538888
1358, 15.771621482182354
1359, 31.03032259478914
1360, 45.94916479350559
1361, 44.95118301791581
1362, 37.652861151686466
1363, 29.03339988114203
1364, 24.105281531189576
1365, 22.11412855868025
1366, 22.033782960945473
1367, 21.54988151456837
1368, 17.39480654981253
1369, 9.23681568250231
1370, 12.066591666520253
1371, 25.533815851061263
1372, 42.207258050640576
1373, 47.953143802265004
1374, 41.67288843507845
1375, 38.65954024124176
1376, 33.584587934241654
1377, 22.703062397591566
1378, 17.917134633037904
1379, 18.373767358035593
1380, 18.60385585723452
1381, 20.76031330086971
1382, 23.698416890945964
1383, 20.534015675016235
1384, 14.19388451424743
1385, 7.909119438179232
1386, 5.7158072708771215
1387, 7.277722443053108
1388, 11.642027273966733
1389, 19.537262889936073
1390, 30.074600727937877
1391, 38.84479327268696
1392, 41.39072689812042
1393, 36.510972650126405
1394, 34.29351412403912
1395, 39.21989002142027
1396, 52.920151086735586
1397, 44.800704541788036
1398, 16.86036328232285
1399, -1.479883779065176
1400, -8.89889579257624
1401, -6.070276092673566
1402, 7.558547801981831
1403, 20.886522912646114
1404, 21.438804204934513
1405, 23.434525729784355
1406, 30.993154170929984
1407, 44.82735955112071
1408, 50.510362041457256
1409, 49.15515186232551
1410, 64.72528272019349
1411, 67.79519403705694
1412, 41.63381428685739
1413, 23.840114439759418
1414, 10.620775151227917
1415, -6.945295022498385
1416, 7.719759906099398
1417, 45.40642389214713
1418, 57.02005199364612
1419, 57.27671746117812
1420, 53.12489794830776
1421, 40.89073104687782
1422, 35.15524214099969
1423, 44.90282626079738
1424, 51.51784876365355
1425, 55.70575123503977
1426, 61.27168234263763
1427, 49.14433290464922
1428, 24.00021461408005
1429, 8.323921121551393
1430, 5.600275333724767
1431, 15.746562576265433
1432, 35.728919049383876
1433, 35.8409300724129
1434, 3.600076302247544
1435, -12.218952443659646
1436, -11.976836181120461
1437, -3.2493971555377357
1438, 10.60583975714053
1439, 27.72523572663181
1440, 45.873041708958226
1441, 62.409277737157936
1442, 72.33232725891344
1443, 64.88734046563536
1444, 45.650889586307585
1445, 23.063297662514287
1446, 17.27055895930721
1447, 16.13379178182504
1448, 9.14851133400316
1449, 2.957985226311166
1450, -2.049120462144856
1451, -6.253891542965903
1452, 3.056482773076823
1453, 15.639619470475054
1454, 7.225704959939321
1455, 6.5970514253417605
1456, 14.757971554754704
1457, 8.852985856850864
1458, 5.332686188246726
1459, 7.570956586576813
1460, -2.4647796782599016
1461, -6.875688666947553
1462, 1.8512970626634342
1463, -1.3901846777121136
1464, -6.336558514107537
1465, -1.8181127636480596
1466, 2.10872698459184
1467, 12.95627596879308
1468, 39.94623462609297
1469, 59.17118652381009
1470, 66.58083916480268
1471, 65.66789503389987
1472, 56.06128836436187
1473, 44.934728446526606
1474, 48.48846702650303
1475, 58.00548558633227
1476, 69.87669030286906
1477, 85.00978617849319
1478, 90.64469306616593
1479, 83.45692954648234
1480, 76.93215763215198
1481, 66.24572586600357
1482, 49.571815697363945
1483, 37.84720073189146
1484, 27.41181701801679
1485, 16.255880930283638
1486, 19.730512254979885
1487, 28.446159507499488
1488, 30.30755341338522
1489, 16.263931492555685
1490, 6.5610717506529
1491, 26.23603632829554
1492, 27.809039343981794
1493, 12.491041907439012
1494, 0.34192884511185184
1495, -10.312967698800776
1496, -10.186441281541192
1497, 17.52850708629967
1498, 18.92727842354998
1499, -2.865017201794444
1500, -1.839074128965649
1501, 9.045766290491656
1502, 22.928167869619983
1503, 35.78986461445902
1504, 31.794792505710575
1505, 17.32312345631658
1506, 27.853433512233323
1507, 35.0937259384541
1508, 28.025908936125234
1509, 18.224400980991277
1510, 13.76069227445555
1511, 14.666179028803754
1512, 8.230679645175314
1513, 1.3036766812924725
1514, 0.20817175590855186
1515, 10.523975231139048
1516, 20.783844094463348
1517, 21.49186460237138
1518, 4.9363386834659195
1519, -10.339664079811882
1520, -10.885997875654084
1521, 13.594588109849838
1522, 32.699110139054255
1523, 29.11349792596434
1524, 23.4289339818572
1525, 20.424162136683663
1526, 21.523255206798467
1527, 25.234454023801618
1528, 28.38076869045699
1529, 30.09801149996383
1530, 35.75864286590104
1531, 38.87251129324159
1532, 33.17230188983285
1533, 13.625049161865945
1534, 1.8455173183720035
1535, 9.265000609473873
1536, 18.199308660355882
1537, 11.6500629879381
1538, -11.07130287844916
1539, -13.453598130505497
1540, 0.5163783619061633
1541, 21.286706599009904
1542, 26.094183274072293
1543, 12.256914854567185
1544, -9.736206952910152
1545, -3.3761780956144776
1546, 8.764467261456502
1547, 13.331132283236911
1548, 14.839520373378264
1549, 22.22971506942463
1550, 34.62101610496188
1551, 36.22268276265254
1552, 28.626195694778517
1553, 17.610468842588944
1554, 15.18995649380281
1555, 20.02035573198168
1556, 21.63123323998002
1557, -0.9820277068156429
1558, -16.062683056750075
1559, -16.89904018688003
1560, -12.23177080145183
1561, -7.8740830548492795
1562, 0.1454419795679769
1563, 22.274221177876825
1564, 58.782567075644465
1565, 101.6143221594914
1566, 129.9053453694362
1567, 160.5461174144425
1568, 206.19840749796776
1569, 274.3741647167999
1570, 340.95652977682994
1571, 400.0041618107225
1572, 454.6488007408084
1573, 529.5660668305038
1574, 611.6013021661511
1575, 683.5919904897496
1576, 730.9353880131971
1577, 753.5318240852193
1578, 757.1478737837365
1579, 757.4941425201337
1580, 730.7423555477815
1581, 672.8576513808434
1582, 608.6607768896852
1583, 547.0985672909694
1584, 490.8516122912995
1585, 437.19008187198165
1586, 360.3052851803013
1587, 274.55526182152107
1588, 212.92026336176423
1589, 142.42456097024342
1590, 71.92131104699138
1591, 28.53738108084508
1592, 4.125995833926481
1593, -0.8693668025280203
1594, 7.454167878375301
1595, -8.830458450222977
1596, -25.587093994973202
1597, -24.074766725039353
1598, -1.6863972663629738
1599, 13.319897709626503
1600, 9.846617659599133
1601, -3.715435522510461
1602, -5.5517158242744244
1603, 0.4533305926418052
1604, -1.7096199693583003
1605, 2.267183540114047
1606, 3.2439755441416764
1607, -7.710911131061948
1608, 0.6407039303451256
1609, 6.028316885033064
1610, -3.2955033006483063
1611, 8.062917235751229
1612, 12.36654306061223
1613, 1.4890934446914343
1614, -3.6340418552774736
1615, -1.1265242794845562
1616, 13.688938251844775
1617, 42.279083464876294
1618, 38.48191711949107
1619, 25.673351846976857
1620, 35.44609399126557
1621, 38.10729424219585
1622, 44.87915198990572
1623, 53.07322369596568
1624, 21.60602636751264
1625, 7.883692115636222
1626, 22.155405607524244
1627, 28.144090166067144
1628, 30.819515065977384
1629, 31.03731383851823
1630, 28.81507385595569
1631, 30.889339807955594
1632, 34.520887601371896
1633, 35.07993762188903
1634, 27.491955580141394
1635, 36.05248851365286
1636, 55.42042270262641
1637, 49.800952387246525
1638, 30.451214449014742
1639, 10.567883698338619
1640, 3.8279810342576184
1641, 17.294394142178817
1642, 20.033299451557923
1643, 1.278269567608504
1644, 0.8504291964477488
1645, 9.995971945860902
1646, 17.114236347886617
1647, 10.059357073884712
1648, -8.199422204523671
1649, -16.062223814335084
1650, -0.7794552984726124