##NAMES=
##LOCALITY=
##RRUFFID=
##CHEMISTRY=
320, -9.939338668364144
321, 5.200477595452867
322, 20.44147225008328
323, 28.898756083081025
324, 29.231616673179815
325, 19.08648731222911
326, 2.6456185408223973
327, -3.537187789793279
328, 0.2880729610524213
329, 2.4385382401196694
330, 0.3068905406134945
331, 3.9416467991386526
332, 19.3374512955088
333, 32.626173076869236
334, 26.756468052886703
335, 9.942177769671616
336, 5.970092478368315
337, 12.738762730251437
338, 10.932099599297544
339, -1.6578294631835888
340, -5.926389602209383
341, 5.017108446106249
342, 18.710776851061382
343, 23.49717923513981
344, 21.061872070155914
345, 14.525784783018935
346, 5.018557463638899
347, -2.809071706181385
348, -8.970596216080594
349, -10.805393565076884
350, -7.7394612784992205
351, -1.296708782963833
352, 8.224739449357003
353, 15.654206684963356
354, 14.990472077462073
355, 10.249702350544794
356, 11.079188626030373
357, 16.11343786762609
358, 16.325085997559654
359, 11.056783490485032
360, 8.040182536566135
361, 10.376165610498902
362, 11.224432134597919
363, 6.792477476600652
364, 3.0580409627109475
365, 6.901376759242339
366, 15.502627951965223
367, 19.101805061639425
368, 17.400890034563417
369, 11.805840526462816
370, 2.9347437120068207
371, -2.841383588971439
372, -4.042886429162536
373, -4.167302727701099
374, -5.554830046413372
375, -4.754378708934382
376, 3.5936880781700893
377, 16.16589221968752
378, 20.292650669000068
379, 17.531206638413096
380, 22.09536394691986
381, 34.82463000650023
382, 31.35914892119581
383, 3.5733238380407784
384, -18.47712277906794
385, -16.89636896866068
386, -4.5663753155458835
387, 1.3273116754180592
388, 5.406070071103386
389, 19.55935101228988
390, 38.54487346739097
391, 32.81004660251074
392, 0.7210315938509666
393, -19.59729613212494
394, -18.61591983765993
395, -13.343271795072724
396, -13.452304771442869
397, -14.7842080536293
398, -12.42797036374759
399, -9.044071543780774
400, -11.09730670544559
401, -16.0928276663044
402, -11.169077450886107
403, 4.731390487286262
404, 23.071972053270656
405, 43.10694493681967
406, 65.72585498062745
407, 86.09081954043631
408, 109.08966548233911
409, 139.17181909943156
410, 167.53843796313504
411, 178.48930902099073
412, 176.01537384113726
413, 174.32774601250367
414, 174.05576697036668
415, 172.0230333452373
416, 167.79503268334065
417, 163.40509360152828
418, 159.3951572195283
419, 144.66106024070632
420, 112.29873161895557
421, 75.6893239511437
422, 58.489784970030996
423, 56.6443314524322
424, 64.69260750284502
425, 75.32992623897462
426, 82.73276994598746
427, 86.05841345760109
428, 83.49322454613684
429, 74.94185501383708
430, 66.33333840718751
431, 59.96077627435989
432, 51.923725783854024
433, 39.481457270003375
434, 23.283369356889125
435, 6.521300619557223
436, -7.755963461592728
437, -9.770077269908143
438, -2.5756533947114804
439, 0.49725819734339893
440, -1.125557051420401
441, -2.016719776561331
442, -1.3019504223593685
443, -4.086065723692627
444, -12.553688499560849
445, -15.939248092961861
446, -6.704824554528386
447, 8.101539777147082
448, 20.01584997955524
449, 28.87600301020302
450, 36.163240861396844
451, 41.63577242007159
452, 44.1883448864628
453, 43.018228402810564
454, 33.35586849593528
455, 15.32518342077401
456, 5.520478114113757
457, 7.76580025104613
458, 12.900607480773942
459, 14.881700302057652
460, 15.645346016789517
461, 17.096865691598396
462, 16.59390254608843
463, 9.576788648564616
464, -1.2199878898900351
465, -7.790112409890753
466, -10.242210544670343
467, -8.637771954163327
468, -3.469278676447175
469, -0.41037858891377255
470, -0.6281857776866673
471, -3.7739175928791155
472, -9.944568488206642
473, -12.88194142329121
474, -8.318591288420976
475, -1.464712461884119
476, 1.8624887404948822
477, 2.1913747967237214
478, -0.05545700808397669
479, -4.798401622549136
480, -11.59407597889549
481, -17.770408996365404
482, -6.921386159441681
483, 21.57389299651095
484, 41.301885414325625
485, 46.21825823784275
486, 48.74763691917724
487, 53.69061474608225
488, 50.538822685214654
489, 32.61130476821836
490, 13.24180716670162
491, 7.885373733402957
492, 6.970605035041444
493, -5.2780707798656294
494, -20.63190258002669
495, -13.964701505979065
496, 8.665365982129515
497, 12.685735317422768
498, -2.4391261006721834
499, -10.246489492862565
500, -7.056449847542353
501, -4.868918222758111
502, -7.034838758920159
503, -0.877243182762868
504, 20.532426182139716
505, 35.5803320940895
506, 27.38988417807377
507, 9.261926543784284
508, -1.070359322044169
509, -3.913426191200415
510, 1.7692859310382119
511, 15.390221214801386
512, 34.73338592329492
513, 59.45177929297097
514, 76.61340643201675
515, 85.7379559439969
516, 92.17681090745646
517, 97.15167955760899
518, 102.28687750944391
519, 108.0261450420794
520, 112.13425524757622
521, 113.54320952715534
522, 111.60006693689229
523, 105.83594180675027
524, 100.14596304331099
525, 98.9000537672091
526, 95.09999296373189
527, 76.79455315198902
528, 50.20986563538463
529, 31.564042977925965
530, 22.73549550735879
531, 15.134052408167918
532, 8.139918639134521
533, 5.958775680231156
534, 8.345040969224101
535, 8.344703247629695
536, 4.707835110467386
537, 4.7097641913042025
538, 10.92698529575864
539, 20.11780241308952
540, 29.206803054373268
541, 33.992608686628046
542, 31.37217339385279
543, 26.03545734488216
544, 23.180898313720718
545, 21.257520992651735
546, 17.738913997702184
547, 16.490284740963034
548, 22.318153905644976
549, 32.170649959841285
550, 40.779719219172875
551, 45.77394649765574
552, 37.90496142320717
553, 18.537960289704642
554, 5.5631168184336275
555, 2.0302848693459055
556, -3.0648339235449384
557, -12.552527341570567
558, -15.028704024914987
559, -6.263292016903506
560, 0.9601792008556913
561, 0.06376750697108946
562, 0.07539253032155102
563, 7.853699868601325
564, 14.797320265668077
565, 11.638301494397638
566, 3.0858169115917917
567, -3.391444462142317
568, -7.948788637856978
569, -10.170774356221955
570, -8.578697016982915
571, 1.7335647553827584
572, 18.327342049297386
573, 26.50162651588289
574, 25.11614438337665
575, 15.79509845117991
576, 0.2917666610528613
577, -9.84178042472422
578, -12.80325659954724
579, -4.0524252527097815
580, 17.550140554092195
581, 31.674122619782338
582, 30.71076060571977
583, 23.071230865628877
584, 12.989505396015375
585, 2.0698201672466894
586, -8.407404647663043
587, -14.000266119865955
588, -10.341713170204002
589, -3.5305737978242178
590, -0.7848519244917043
591, 0.9936951314589351
592, 6.590598690223942
593, 13.620986849201927
594, 15.06706077361605
595, 14.18210170815064
596, 20.42702790976955
597, 30.021667081552096
598, 27.6820213236756
599, 14.920981689541804
600, 4.884657356002208
601, -0.1476096821097599
602, 0.23664026274809657
603, 5.212029107257877
604, 6.374137526960567
605, 2.4528763430425897
606, 0.4821873493583553
607, 1.8995595131877963
608, 1.7232083569642782
609, -1.6220150464660037
610, -0.32376684723340077
611, 9.144201751572837
612, 10.544170867253797
613, -5.236041433573519
614, -15.048914435983534
615, -2.9179058758086285
616, 10.941968309675303
617, 7.31810632286215
618, -1.6927292404857326
619, -2.1918011261091124
620, -0.26177033722296983
621, -4.536350690191284
622, -8.823529978576062
623, -1.4865013169837766
624, 11.242450935720171
625, 13.598103578975042
626, 9.471950729570835
627, 11.803595882386162
628, 18.541571109954475
629, 23.926460052802668
630, 26.943911581037355
631, 25.33876955080541
632, 18.90778614729834
633, 7.793007465710161
634, -4.7357402700567945
635, -5.236733142520279
636, 6.859425513425776
637, 19.43093105681328
638, 28.235958647137522
639, 25.295492233432924
640, 9.957100964924393
641, -1.4100091633467855
642, -5.368190331002097
643, -0.6451260470503257
644, 13.249927467758425
645, 24.501323856860836
646, 28.31469352933391
647, 24.683542739211134
648, 13.83472537196485
649, 6.7778745355576575
650, 10.13037391470698
651, 13.06077554358717
652, 9.088069397514573
653, 3.2514254481866374
654, -0.3593896781917465
655, 0.4274653497768668
656, 7.89655028066818
657, 17.14988621008979
658, 21.646143336210116
659, 21.914808735960378
660, 18.58335127520286
661, 11.624532132480908
662, 0.999729288143044
663, -7.992737326409042
664, -8.177886018000208
665, -4.0698656799700075
666, -3.3253218889049094
667, -3.900859204088192
668, -1.6612740394798493
669, 2.5204957195560382
670, 6.383111207918773
671, 8.661021069030994
672, 7.093869457033634
673, 2.8391597903369075
674, -0.3627214052412455
675, -1.8928984966410098
676, 0.34221837126506216
677, 6.870193808795648
678, 18.844979338193752
679, 30.69387456427512
680, 24.321492760548153
681, 3.695294641016062
682, -8.076321357003508
683, -10.136432212707405
684, -4.26673880952967
685, 7.800373361777929
686, 17.001672436898843
687, 21.95953939877927
688, 26.610519714896327
689, 31.81313171808506
690, 39.21402651785911
691, 47.612476312813214
692, 48.00771016540739
693, 39.63840602774462
694, 27.690920664520036
695, 14.206546623957365
696, 8.392937359607004
697, 10.393425634424148
698, 14.154626352381456
699, 15.950220640886982
700, 4.444261973122593
701, -18.396584994233763
702, -19.277437532743534
703, 6.0532673053312465
704, 22.77299687965524
705, 22.746529464932337
706, 22.23845073914663
707, 24.57771348919323
708, 21.02705456784588
709, 10.919510616484331
710, 13.514085738283484
711, 32.16846635645834
712, 43.79549587645306
713, 42.972189717431775
714, 38.42052125768487
715, 32.703681205389785
716, 26.18615561238221
717, 18.978641016052734
718, 11.113722549551312
719, 3.8920238163191243
720, -1.1056572164548015
721, -3.4163076552476923
722, 0.1131650474799244
723, 10.073061547870566
724, 15.873469990058311
725, 14.378554532914222
726, 7.408043018495846
727, -3.6874774849084133
728, -8.997633868031244
729, -6.291128701740945
730, -0.5693902160869584
731, 6.882505093606596
732, 13.039368924240534
733, 16.609617389180585
734, 13.161548523979945
735, 2.576671189227909
736, -0.47666051765963857
737, 6.404702994463605
738, 5.911985087329413
739, -5.439271941100287
740, -11.936344112014012
741, -9.794375770823535
742, 0.44290647376692505
743, 17.772584518811527
744, 23.803486820177568
745, 15.170024065650068
746, 5.010560508516846
747, -2.5863002220785347
748, -5.471781572347481
749, -3.421103205554118
750, 2.2909189641177363
751, 10.380195944571824
752, 8.665463991889283
753, -2.6340004313824465
754, -3.5123506797676782
755, 7.2627996602632265
756, 11.343021335708272
757, 6.753045545687655
758, 3.191862894029782
759, 1.7868406872780724
760, -2.772917099483493
761, -8.88134409442182
762, -1.5963839166934122
763, 17.40834976209453
764, 25.037173012042786
765, 21.92790351097301
766, 25.201688433477102
767, 33.9805541818273
768, 35.967130533356794
769, 33.77266213779785
770, 42.349466046328416
771, 55.65873620534012
772, 47.93671754372917
773, 24.91705415007118
774, 11.310731799791938
775, 6.973980571231095
776, 2.8065836573878187
777, -1.1489942453476942
778, -2.7687389274606176
779, -4.052168192560202
780, -9.638554062310504
781, -11.023192392321107
782, 10.677660125996226
783, 44.9032730274439
784, 66.17278194988512
785, 73.08027088249173
786, 64.1942130150378
787, 45.64670794577114
788, 26.242863714172472
789, 10.687489226339949
790, 5.846837574118126
791, 4.926804670798447
792, 0.9980088902889293
793, 0.9912618979583385
794, 11.654958318815261
795, 24.255933480385465
796, 29.84727567068876
797, 27.849649226841393
798, 17.971762833012235
799, 6.393863625143695
800, -2.4186685522108746
801, -1.9501373780540234
802, 11.089272602700476
803, 25.966413451861627
804, 35.80993809966185
805, 30.590723176888332
806, 8.463689607655851
807, -4.798238915695492
808, -3.7131964690624955
809, 1.3218579838376172
810, 7.773810018634322
811, 14.188651477013536
812, 18.7619647976544
813, 17.787409612596548
814, 12.384128012091423
815, 12.163909003226308
816, 16.280386347344574
817, 14.784895349982435
818, 7.856665143724058
819, 1.1426877907538255
820, -1.6665968138113385
821, 10.825268093987688
822, 33.079225470177335
823, 45.44807657054753
824, 46.54198615688847
825, 35.27433791934209
826, 17.07430308567291
827, 0.9227756247300931
828, -9.730398594815597
829, -11.672255597382446
830, -10.619683764496585
831, -12.291443215882282
832, -12.455815222591355
833, -7.486595657748694
834, 3.94817065067582
835, 23.253351791046953
836, 38.30651707102015
837, 42.856668329427976
838, 34.22685834745198
839, 12.671633726559776
840, -0.21109457336706328
841, 0.22205082206573934
842, 5.480759983659482
843, 12.729479900820934
844, 13.06496551650298
845, 7.412022022171641
846, 11.162983921935847
847, 23.516491054720973
848, 28.694706948244857
849, 26.550072450315838
850, 22.06292615657685
851, 14.568372936272226
852, 1.3660717140510314
853, -9.205282634788546
854, -1.6881372873122018
855, 12.529504786833058
856, 14.470652167849039
857, 11.629250894206507
858, 12.808733363378451
859, 12.879293805882298
860, 7.546762736345045
861, 0.30135000148447944
862, -6.452168876042833
863, -8.016167804815723
864, -2.4417941422466356
865, 2.8281167985596767
866, 5.424234514911859
867, 5.0702305718332354
868, 2.126630276522974
869, -0.5800997313886
870, -1.8017938249299732
871, 3.4844861804836
872, 14.44774182755873
873, 22.866700048012717
874, 27.351381002082235
875, 26.136368482708804
876, 19.911106635247506
877, 10.305034034448454
878, 1.1528743353669597
879, -1.734196808771685
880, -1.2961363001036261
881, -0.39843939954016605
882, 0.6712049268348892
883, 1.7699448992743783
884, 4.561661778364851
885, 10.275020765971476
886, 21.642184605170314
887, 37.40182139607532
888, 45.177040522593416
889, 42.34410906320227
890, 35.287421381665354
891, 25.89045336871004
892, 17.15216157376608
893, 8.49716386534692
894, -2.585302897418842
895, -13.745521585929055
896, -16.984720950275005
897, -14.031099296902084
898, -7.717522017863757
899, 3.104060003136965
900, 20.167896318952444
901, 33.48572608712675
902, 35.53872420646803
903, 37.273246893098985
904, 43.97515014791452
905, 41.141998872021304
906, 24.642220983424068
907, 9.555293324754984
908, 0.6807903367252948
909, -3.931087047567871
910, -3.1058083654738766
911, 10.95721424455769
912, 31.41759740063435
913, 31.00429252863023
914, 16.593721691473547
915, 4.917618569654223
916, -0.213588060082202
917, 4.473393262462196
918, 8.172025991171722
919, 1.0544146980664664
920, -2.1892564569443493
921, 5.683309981128787
922, 12.445758741339432
923, 13.603165775299658
924, 19.266151705514858
925, 28.622053045468874
926, 21.88440254169791
927, 4.70914602238463
928, 10.868350766626918
929, 31.087269702440608
930, 31.88662089213949
931, 21.943994403792658
932, 17.916376103109542
933, 12.71925676939145
934, -1.0770216908827024
935, -6.765541247331839
936, 5.108865183431135
937, 12.966168340698005
938, 8.467996225362185
939, 12.676376346994402
940, 26.61502441129369
941, 27.40701515658202
942, 16.25309560667165
943, 12.750416725571085
944, 12.798818113147718
945, 1.693595462857047
946, -10.244635963967085
947, -7.332630617391715
948, 1.0924109928314465
949, 6.516375697173316
950, 8.781801108928903
951, 7.847753961764738
952, 3.48491887173941
953, -3.02477955330869
954, -3.518810939953255
955, 2.5028637796494877
956, 8.308948805086857
957, 14.513169934054076
958, 23.380785601163552
959, 32.70788074089796
960, 37.94049059969166
961, 36.99701490724692
962, 27.66444460253797
963, 14.575868149110647
964, 1.271841946278073
965, -2.5164664059607276
966, 5.189786284600359
967, 9.786679334787095
968, 8.06445130009115
969, 6.136107835789971
970, 2.9059399212901553
971, -7.464379353467393
972, -16.790048987924365
973, -7.823613953885797
974, 5.011627199431587
975, 5.173095618602929
976, 1.3556355753325988
977, -0.9188851101162072
978, -4.304645355479352
979, -8.326428184112956
980, 1.0384963434858037
981, 23.112100921747697
982, 35.97183587454629
983, 37.76393494011427
984, 30.58212596680687
985, 21.23578126191478
986, 20.114660022302814
987, 17.422128323760717
988, 4.916502313163619
989, -5.1715136742927825
990, -8.538970827936737
991, -11.478636122874832
992, -14.324947143096779
993, -7.63958900193893
994, 6.894445323677701
995, 18.13022907077584
996, 35.56580413643724
997, 78.30100082281842
998, 120.304702406057
999, 138.14467107983364
1000, 140.5468559796168
1001, 132.58432217755671
1002, 116.16884303862525
1003, 93.49050215424177
1004, 74.59612748946984
1005, 58.35799086758561
1006, 34.78799438524038
1007, 12.515217964423755
1008, 0.9136094680861788
1009, -3.9915248734428133
1010, -6.012189123009193
1011, -7.7755004141363315
1012, -10.47045458788989
1013, -9.640725451567505
1014, -4.566498767817848
1015, 0.15966982331838153
1016, 3.835645335742356
1017, 5.799918363213237
1018, 11.100714617726226
1019, 28.929277569761325
1020, 49.933854128629264
1021, 66.25522642578744
1022, 72.94277807587969
1023, 68.19135151073124
1024, 58.35698577226185
1025, 46.63065769156219
1026, 40.32997941209578
1027, 37.99441173206378
1028, 33.33981074809981
1029, 26.917326720867095
1030, 19.91895075968023
1031, 10.867605032742631
1032, 0.3123478708894254
1033, -3.9490570389721142
1034, -0.7400106854593105
1035, -1.3810941484080104
1036, -5.42245550710777
1037, -3.763361532946419
1038, 3.230483275991901
1039, 13.81313774125556
1040, 21.7539114654287
1041, 21.655111416215277
1042, 12.233718566598327
1043, -5.387992610276797
1044, -15.898828277247958
1045, -14.647386828572508
1046, 6.387561213526169
1047, 31.684862391158276
1048, 20.209892864508674
1049, -6.227710257156559
1050, -22.686654033068862
1051, -26.841781288597304
1052, -17.721091433672427
1053, -2.464446750013849
1054, 14.281262870179944
1055, 14.035163793555967
1056, -1.5529518205844397
1057, -23.02901242058897
1058, -38.11712428160945
1059, -32.11336877561553
1060, -19.52910518859835
1061, -7.505021091220897
1062, 6.1924262638654
1063, 18.03000175768875
1064, 4.446041971284558
1065, -19.832296588256668
1066, -12.071639644530933
1067, 17.91321876491429
1068, 58.92053521244361
1069, 113.98895764746521
1070, 185.9744486642894
1071, 242.16597025393094
1072, 280.3996070869671
1073, 315.6139098564081
1074, 349.6814925163935
1075, 382.9024681902197
1076, 413.34849327819074
1077, 438.85789576397883
1078, 452.1953699602559
1079, 449.60308274714
1080, 427.7164473064572
1081, 389.19986323206876
1082, 346.30145862334166
1083, 298.65079853546604
1084, 243.7165056966369
1085, 181.93153846250652
1086, 114.55480202805802
1087, 68.67425222793827
1088, 43.375193552772544
1089, 23.839036123214555
1090, 7.798855022812404
1091, -1.6215121761392766
1092, -10.098779361084326
1093, -24.536333247901894
1094, -31.310228556051698
1095, -24.76090146132401
1096, -25.772285360208116
1097, -34.186819321391795
1098, -26.806538391937465
1099, -12.575617073165631
1100, -13.16910628381197
1101, -14.225240974742974
1102, -4.623832989463153
1103, -3.0494641192010477
1104, -12.464842701611133
1105, -8.85138681639637
1106, 3.989971069223884
1107, 5.85283268319904
1108, 6.471556964449292
1109, 18.062889239552533
1110, 30.82418996892079
1111, 39.6519454691047
1112, 40.210564743055784
1113, 30.740234508176172
1114, 8.573329431782895
1115, -9.832611459356258
1116, -2.5500282912184957
1117, 12.75618762736758
1118, 25.930488582909447
1119, 36.8482439266229
1120, 42.849333535426695
1121, 31.47311484599868
1122, 10.204880595275881
1123, -3.655459785150242
1124, -13.054017634056208
1125, -19.820719176934972
1126, -16.405847531904556
1127, -1.3178291877215997
1128, 19.302902626763625
1129, 36.52167935909051
1130, 33.54163252613807
1131, 25.950085228528906
1132, 27.014842656032442
1133, 27.034590691430367
1134, 24.4093299146125
1135, 29.498980282502316
1136, 33.18288803315636
1137, 11.631849246723277
1138, -7.646286756574909
1139, -2.705328301708505
1140, 9.290549793170157
1141, 22.547971372177017
1142, 34.49457522710304
1143, 38.91201842015039
1144, 22.327853694337136
1145, 4.147937894376128
1146, 2.2683971777778424
1147, 6.376206615794217
1148, 11.366220348065326
1149, 7.336114465774017
1150, -1.0273894652075342
1151, -0.8487919456442796
1152, 5.826061564436486
1153, 16.816277487862862
1154, 19.96654386723185
1155, 12.50809896347073
1156, 0.16480450525273227
1157, -10.647691416220823
1158, -10.119803999811438
1159, -0.48931702780396336
1160, 15.665687198358455
1161, 17.907548341098845
1162, 4.430572225214291
1163, -6.929927403025658
1164, -12.841997864002451
1165, -9.66270568796972
1166, -0.14845576414427342
1167, 12.844162247094573
1168, 11.74658195642678
1169, -0.22927565583358955
1170, 1.1843056357758996
1171, 13.712462736073121
1172, 32.881603993410636
1173, 49.50802932502097
1174, 58.659675344737934
1175, 52.26784236442654
1176, 36.844189845323626
1177, 32.14984834361485
1178, 32.36790233806505
1179, 30.892888208308023
1180, 21.77717472887548
1181, 6.971832834300585
1182, 5.9354363000811645
1183, 11.264768823949908
1184, 5.38387257007912
1185, 2.9690512132606273
1186, 10.804153723923037
1187, 7.895938595809639
1188, -3.3816008685723773
1189, -0.04923682912340155
1190, 6.595130287052598
1191, 1.3402183562632217
1192, -3.5243465457515413
1193, -4.1966580946034355
1194, -5.683677460678609
1195, -8.720015317816205
1196, -13.206367130527724
1197, -11.353736043210574
1198, 1.285347984361124
1199, 8.894256685181972
1200, 12.705033416312517
1201, 29.80872837238894
1202, 47.22295134656906
1203, 49.58729313983417
1204, 50.886700044729196
1205, 53.913907258701784
1206, 41.32605581748453
1207, 21.8759994083141
1208, 19.70874529475327
1209, 25.120057167675668
1210, 29.29585726056007
1211, 30.72566927804064
1212, 27.781632484252214
1213, 16.755443655569252
1214, 2.874644417229547
1215, -7.7200239101384796
1216, -12.774914648103959
1217, -10.921187770389452
1218, 0.9928554149635147
1219, 15.087157012332227
1220, 16.84444553769322
1221, 11.943737134878802
1222, 4.322742143282312
1223, 0.392397275399162
1224, 2.9174200540703623
1225, 16.59499581956925
1226, 25.443073568046202
1227, 18.787494225097817
1228, 3.5814757114146687
1229, -12.711123351507467
1230, -15.958958286243387
1231, -7.423503256590266
1232, 10.48239929824581
1233, 18.701963605086576
1234, 13.214781474135862
1235, 4.196092619442879
1236, -4.910636732193325
1237, -11.94682217694367
1238, -7.731966994938375
1239, 6.194712757570869
1240, -0.5009191871488383
1241, -14.94135371074708
1242, -9.769997744989723
1243, 6.9287917705669315
1244, 29.33380540709777
1245, 39.92920496071406
1246, 37.232547465645894
1247, 24.407439668060988
1248, 12.680454497663732
1249, 10.63573142109658
1250, 19.20974275058711
1251, 33.901637266270654
1252, 39.314011506784254
1253, 40.222778426112654
1254, 40.39309121349879
1255, 37.07984581189953
1256, 32.01625706036225
1257, 31.818866804261233
1258, 38.131057159539296
1259, 46.02014740707955
1260, 54.33262236977339
1261, 59.518409311469895
1262, 51.823434310694665
1263, 38.56827699861947
1264, 28.298148191612427
1265, 36.17141381843635
1266, 53.63604259031695
1267, 50.36198518403694
1268, 33.79351079331036
1269, 14.430714027684644
1270, 2.9419875487494664
1271, 3.2260402592137325
1272, 22.509424318886886
1273, 39.11531808435461
1274, 32.06124975813623
1275, 23.395731266469056
1276, 19.239330837570378
1277, 16.787277950506905
1278, 12.8654651330055
1279, 4.853775236769252
1280, -1.7925116960986998
1281, -3.4410031248937685
1282, 8.61814356245236
1283, 16.941343553631214
1284, 5.670340599960809
1285, -1.1057585784651565
1286, -0.07736363282378989
1287, 0.2221745678066327
1288, 8.265638131154674
1289, 29.780534737306425
1290, 31.833705679251125
1291, 14.4983548400578
1292, 1.298328111149658
1293, -2.649888303787293
1294, 3.4361518255179817
1295, 5.1970045324078455
1296, 0.5737536352016832
1297, -7.746801781331442
1298, -11.781502805095897
1299, -4.831139743282165
1300, 22.835087842028088
1301, 54.22624374964653
1302, 50.726633281833074
1303, 39.43543321172842
1304, 34.196300227562915
1305, 22.879616360562522
1306, 8.280693518102908
1307, -0.9663600756521191
1308, -9.011273197282208
1309, -14.71562779656847
1310, -2.800101663053283
1311, 13.395721173269976
1312, 12.947720228066146
1313, 3.6020467439072945
1314, -7.428743966990169
1315, -7.176192107037878
1316, -4.268786160966783
1317, -7.114564465308149
1318, -5.196753097100554
1319, 3.9419795513933877
1320, 19.297770693104667
1321, 31.936345723079057
1322, 34.88379430634541
1323, 21.061977818616242
1324, 1.0763042321248122
1325, -2.066463350150343
1326, 1.144196905753006
1327, 4.200671234691981
1328, 0.8068518661125381
1329, -1.5303345244192315
1330, 7.8364477483014525
1331, 13.808263555679332
1332, 12.646677470589339
1333, 10.090779600679525
1334, 6.136052471997118
1335, 1.1626277919278891
1336, 2.4330586128103278
1337, 6.37934106189914
1338, 0.9218929492210464
1339, -3.255396792754709
1340, -0.6801618880547267
1341, 6.655681007071962
1342, 14.53307381945956
1343, 16.939772556185517
1344, 7.834224255664822
1345, -7.705055858315063
1346, -6.281509339370359
1347, 0.5551465990406541
1348, 2.52581148699619
1349, 5.628472327060763
1350, 8.965213026112224
1351, 7.166410869522224
1352, 13.614895063664335
1353, 27.522695014637293
1354, 18.51589910288544
1355, 2.5632013751551312
1356, 3.2329830230539756
1357, 17.156377342889527
1358, 35.64074423681791
1359, 39.32565331289925
1360, 25.86730178162452
1361, -1.2487044785848411
1362, -16.549286209254433
1363, -14.856438764790482
1364, 5.796772451660445
1365, 13.866015127531682
1366, 4.055090764388524
1367, 0.17703147733482183
1368, 3.404047977270693
1369, 13.755521897376639
1370, 29.48463908839426
1371, 39.833893925651864
1372, 28.450783276410903
1373, 20.347573509172435
1374, 20.015444912291514
1375, 8.452490580900758
1376, -1.629843932498943
1377, -1.125039110194166
1378, 3.8778356448824525
1379, 10.203213950772351
1380, 12.945258935581933
1381, 5.360848667691926
1382, -8.899163208862547
1383, -11.753504312552423
1384, -1.3560068315975968
1385, 19.50184127669263
1386, 21.41370132009024
1387, 11.252155093626698
1388, 8.936236230930945
1389, 10.45907075050036
1390, 12.858861132362108
1391, 15.660136589728154
1392, 12.820644644809136
1393, 3.2267937184387847
1394, 5.490573021729688
1395, 20.48380198171708
1396, 42.011832187903565
1397, 37.7435971257612
1398, 10.33458293657759
1399, -6.735437042048261
1400, -12.652104750392255
1401, -8.347871324794141
1402, 2.5938931500493254
1403, 8.155602807885316
1404, -2.083643959345636
1405, 1.2021310482305125
1406, 14.57087014554645
1407, 17.31031013042275
1408, 18.333961691801505
1409, 18.859062023347406
1410, 9.681396578922659
1411, 3.6462284683486814
1412, 7.806881000642306
1413, 2.1771223542591542
1414, -4.476071925741053
1415, 1.3032609831707305
1416, 2.5975733526443037
1417, 0.18110490860635764
1418, 6.166053887792941
1419, 5.267072857585617
1420, -2.6871212022972486
1421, 6.883932499310731
1422, 20.23150960007115
1423, 24.14117821818172
1424, 25.759266403735182
1425, 17.92204559395509
1426, -7.599561330154529
1427, -12.897854039339563
1428, 4.494656170764756
1429, 27.57572422718181
1430, 36.90331388159416
1431, 28.655169409531027
1432, 18.676244550962338
1433, 6.43456666332213
1434, -4.849024140606389
1435, 5.220253961289018
1436, 17.018781927547252
1437, 6.253570059174763
1438, 11.779503867268431
1439, 22.599758123453057
1440, 5.399985182872115
1441, 0.7838079348707652
1442, 11.540021392487006
1443, 6.139202867152335
1444, 3.841973888503162
1445, 10.235190718782633
1446, -0.25950942418967315
1447, -10.124167981294477
1448, -6.19110340549355
1449, -1.8450628996263276
1450, 0.4738241422619467
1451, 0.8760517305699977
1452, 4.917478416755785
1453, 11.87525135769306
1454, 16.928170327295902
1455, 22.039482323158154
1456, 24.881035121307832
1457, 18.051848393089358
1458, 8.896576782813327
1459, 1.463684829737531
1460, -3.1966696003250945
1461, -3.786126337522319
1462, -0.6717965286384242
1463, -0.5237091881394917
1464, -1.1944295725531902
1465, -0.247631071540809
1466, -0.13057776610207839
1467, 3.3425080775359675
1468, 14.513608180590836
1469, 12.65087661947905
1470, 4.015580109546136
1471, 7.849347077049288
1472, 7.7604286062510255
1473, 2.479537358073003
1474, 1.4511231137503273
1475, -1.8547760373533038
1476, -5.270621959766686
1477, 6.210458232315432
1478, 18.5762394767346
1479, 24.59946461525169
1480, 32.339410070542044
1481, 32.092140415126096
1482, 21.33479518274021
1483, 21.750296188809443
1484, 26.88468341699877
1485, 28.193975947242507
1486, 22.237050240715007
1487, 8.725077582540735
1488, -8.14655424658713
1489, -7.790528371262781
1490, 3.228079916409797
1491, 10.882086148804774
1492, 11.618807198744662
1493, 11.378953347337074
1494, 21.222204753069036
1495, 30.88902488757776
1496, 31.73288681357394
1497, 14.218188418353748
1498, 2.719477943768652
1499, 3.701294161288615
1500, 11.972130264420684
1501, 12.523468212820262
1502, 2.095909579048339
1503, -12.519125942817936
1504, -10.767169220685219
1505, 7.2670995900773505
1506, 15.730186831923447
1507, 9.89205953214082
1508, -4.122505818150103
1509, -3.5213512804405127
1510, 5.607184074058523
1511, 16.29289061110535
1512, 15.542244252840419
1513, 3.260153277055224
1514, -11.384634460759571
1515, -0.35465123873018456
1516, 11.048538254111463
1517, 8.032268637591642
1518, 2.954986482844788
1519, 2.6630923137540776
1520, 9.846650575615513
1521, 20.979656965261256
1522, 22.515327694621647
1523, 10.25152533936216
1524, 4.163262623316086
1525, 0.7518703133678173
1526, -3.3946103758744357
1527, -3.5799554145989987
1528, -2.477243179992456
1529, -0.16036828839742157
1530, 12.490810212001861
1531, 23.631152293858577
1532, 23.690204692363068
1533, 10.922808162509682
1534, 3.567072982658374
1535, 8.879941130808675
1536, 2.1858082605590425
1537, 0.9873660608650425
1538, 10.289015477456815
1539, -2.72934910175627
1540, -14.206207471184825
1541, -13.087562143915875
1542, -19.747150073433204
1543, -6.095133190178558
1544, 33.781591646472634
1545, 50.787021838302735
1546, 51.15439403229857
1547, 41.369414156833955
1548, 23.47029142221595
1549, 14.384027806379663
1550, 17.33452796162328
1551, 10.530252574223141
1552, 1.3086688321113797
1553, -0.5264399326233615
1554, 22.339318618227935
1555, 35.57806224601222
1556, 26.65688585383714
1557, 1.959781861570491
1558, -25.198826858070106
1559, -41.30467787970497
1560, -26.16981390515616
1561, -5.31672961705226
1562, 7.689517034715891
1563, 2.9638812816394875
1564, -2.2994065820319065
1565, -2.484434967017023
1566, 3.2813407780959096
1567, 4.779708304232145
1568, -0.6607737007104788
1569, -10.542757026752724
1570, -9.630570399801627
1571, -0.950086676095907
1572, 7.9671052268206495
1573, 6.906779677304485
1574, 6.711245790361545
1575, 17.880805806492845
1576, 42.23920519865419
1577, 69.16249821373958
1578, 100.32351240086427
1579, 154.032072198587
1580, 198.06183283094242
1581, 223.3084949443646
1582, 252.22086685811632
1583, 261.30533867158147
1584, 248.98564093695677
1585, 232.2136412546604
1586, 196.5473425879843
1587, 149.13856287723502
1588, 108.84984120754734
1589, 70.97846437335897
1590, 41.654372562285516
1591, 18.904565992748758
1592, 4.791600595560112
1593, -0.07947251639802744
1594, 0.4980305722635876
1595, -12.920420884620398
1596, -22.256395185753945
1597, -19.449105012732616
1598, -19.372356167312546
1599, -6.698821670452389
1600, 11.626077632804254
1601, 1.400273407711211
1602, -5.862521039344983
1603, -8.229703412158642
1604, -16.76733560214325
1605, -6.701380281588854
1606, 10.934279763307813
1607, 18.36553048959786
1608, 28.51462421639326
1609, 34.405793344891435
1610, 29.397875316907175
1611, 14.605324459610756
1612, 2.0004493995270423
1613, -2.8183744503678554
1614, -2.4519849174073443
1615, -0.8569986756799608
1616, -6.140622538518073
1617, -24.85766538506664
1618, -9.620153770745219
1619, 21.891637846016238
1620, 37.03810198744554
1621, 35.82877982480204
1622, 24.827365827707354
1623, 13.848178743977769
1624, 20.71059086548189
1625, 20.38084659817605
1626, 10.081075671091412
1627, 8.035011945293263
1628, 15.285200500957899
1629, 17.64717274946247
1630, 1.7504129010105771
1631, -5.931544305915395
1632, 0.13994014716104175
1633, 18.576444883387012
1634, 36.50619950071655
1635, 37.42972370291045
1636, 19.89545405175886
1637, -1.41819596490177
1638, -1.421930626861922
1639, 13.357329426348315
1640, 26.1578744024132
1641, 31.49142546252483
1642, 24.749923285277873
1643, 10.626835101955521
1644, 14.35271960886871
1645, 18.778329903966778
1646, 18.01985282763485
1647, 14.151464431897693
1648, -4.15506324092803
1649, -19.54570209247686
1650, -14.683009092520933
##END=



