##NAMES=
##LOCALITY=
##RRUFFID=
##CHEMISTRY=
320, -13.925772784939
321, -11.912312095642847
322, -3.5979102648589105
323, 9.669958660790144
324, 26.02535480466304
325, 38.894265544148766
326, 46.338795036843294
327, 41.29140170956998
328, 24.47925260070042
329, 9.733803571101816
330, 1.4958347313149716
331, -1.8369943303841865
332, -1.0254526294320385
333, 1.0046868303452356
334, 0.6511007695653461
335, 0.0838364778965115
336, 5.358772901863631
337, 15.990315009493315
338, 22.97652186587311
339, 24.910370976948798
340, 22.728641171319396
341, 16.800270180335247
342, 12.139322701543279
343, 14.085973302903767
344, 21.767876556902593
345, 31.8002973053226
346, 42.07028353522401
347, 44.482730711549266
348, 38.14148121468406
349, 22.32358772981206
350, -2.6088606409302884
351, -15.818705343356669
352, -7.761495033794745
353, 9.020985612237382
354, 21.093411628421563
355, 28.882348862194704
356, 35.611289581556775
357, 39.84608132172889
358, 33.62876154422338
359, 17.632169384845838
360, 16.66386180048994
361, 37.37073215300279
362, 52.13743591026741
363, 44.66128873010712
364, 25.27152136008317
365, 8.108723146510783
366, -5.924643181558167
367, -18.216829494303056
368, -27.38177819444627
369, -18.964422058294986
370, 9.161811815455621
371, 40.63421400735115
372, 67.9124955484549
373, 86.5841760923513
374, 93.60796918148935
375, 90.09598520613781
376, 77.6836294487448
377, 58.05110919316485
378, 36.07316577187248
379, 13.35433531081435
380, -0.9685577352756809
381, -7.253566872308511
382, -9.800086911286598
383, -10.096599019808309
384, -4.71737958729409
385, 9.216869584659435
386, 24.61764424050034
387, 28.578858103351195
388, 23.27964173919463
389, 14.96663862693731
390, 4.490975808414078
391, -5.001967782601241
392, -13.709983960996396
393, -17.994603333294435
394, -16.905854016074954
395, -11.81218278252527
396, -3.083542154400675
397, 3.9816685768773823
398, 2.6212867238618855
399, -4.033898738909556
400, -8.968310684892458
401, -11.527024797612285
402, -8.234364604055372
403, 1.8742813037779342
404, 21.592468902769724
405, 52.99748664320941
406, 88.4500621975385
407, 117.53884582991304
408, 140.38151575549637
409, 157.08519535631967
410, 170.56901267945887
411, 186.0417133796409
412, 203.28292003845854
413, 221.22572087906428
414, 239.05641008306338
415, 252.07947993257858
416, 260.0844639286752
417, 272.70101628518296
418, 293.05110847709966
419, 310.0492585100865
420, 316.80301053449693
421, 319.5013023311285
422, 325.58447003879246
423, 329.0603667451269
424, 316.58395248530996
425, 291.60648651501197
426, 270.0248263970043
427, 252.74139432693028
428, 233.60758025248197
429, 211.5808505706591
430, 192.31320558904372
431, 178.0013104298805
432, 166.35992920994977
433, 155.78329200805547
434, 137.66986591604473
435, 100.5880891646375
436, 54.772689995083056
437, 30.14864764066533
438, 20.73055613573615
439, 6.31888837265069
440, -13.22036224292151
441, -11.753300514890725
442, 15.303546726678178
443, 36.59900900739103
444, 37.5230006831589
445, 34.97682461647855
446, 40.42454926150458
447, 43.84682320284719
448, 32.74742468565364
449, 16.031153712495325
450, 14.835865630440821
451, 25.838176700072836
452, 32.92038788037462
453, 34.99403460823851
454, 34.20534506979493
455, 31.05058478290175
456, 26.858030380128184
457, 22.092997886538797
458, 18.053832794692426
459, 15.469025597369182
460, 11.71961822515641
461, 4.228509893782757
462, -2.535372987120354
463, -2.267351031489852
464, 1.2813645696451204
465, -2.7992351816692462
466, -12.963114914852667
467, -17.12699617263752
468, -14.775483128233645
469, -13.260879488372666
470, -13.979594698323126
471, -11.114283075165076
472, -2.1095438412885414
473, 4.357316519878623
474, 2.1419461016530477
475, -4.431520150022152
476, -10.84484526781307
477, -14.045631030066033
478, -7.277206671467866
479, 5.117815087743111
480, 7.6739377359608625
481, 1.6066383584357027
482, -0.604870763985673
483, 1.833935317072246
484, 2.2226876629147228
485, -0.5785304234932482
486, 3.953273310065015
487, 20.35552574367921
488, 31.689941099035423
489, 27.439100950578904
490, 19.23465907465561
491, 19.403072253639948
492, 22.437478591366926
493, 18.77783989539421
494, 11.014415713479139
495, 6.710861777155515
496, 5.490479054796197
497, 0.7794374299828633
498, -7.856613216064943
499, -15.522760206447856
500, -21.525706133428685
501, -22.208807675322532
502, -16.487992146185206
503, -11.110733054030788
504, -9.152049209410507
505, -6.053319728103816
506, 1.8884461051211474
507, 11.091141772480114
508, 16.944222949485265
509, 24.653206526369104
510, 44.11544755603609
511, 73.73893584656162
512, 97.76210013929995
513, 116.28585138171275
514, 133.32889642005193
515, 149.53313837492897
516, 165.92533626338263
517, 181.81971996663106
518, 184.97402456506188
519, 171.94261948504663
520, 156.3922459444275
521, 144.8070516275975
522, 134.22562878499957
523, 122.52135069821634
524, 114.26907969619697
525, 114.6013279869967
526, 116.1588649297264
527, 106.37320046531022
528, 87.09108568435113
529, 63.506431816022996
530, 38.33497803385217
531, 24.59498333216925
532, 20.865100217341023
533, 21.60390195272248
534, 25.646975968893457
535, 26.95962731867985
536, 24.483048558672635
537, 16.062794999570542
538, 2.9431393127069896
539, -1.4834502570602126
540, 9.739710449830454
541, 27.510981459210598
542, 43.30318550605716
543, 50.79066359860008
544, 42.96193942052014
545, 27.812133325525792
546, 18.343608673005292
547, 15.327680905152192
548, 15.576606236481894
549, 20.2463471428091
550, 31.882456208964868
551, 46.50292897837335
552, 43.78469234968634
553, 24.156792609804143
554, 8.919045215189726
555, 2.938756506837308
556, 4.076512758651916
557, 11.534472633942642
558, 15.380996136648719
559, 12.082478038185855
560, 8.546776915545706
561, 8.459517234080977
562, 6.046134726042055
563, -3.0365096105388147
564, -10.028996235390878
565, -5.857734368640649
566, 0.7644248206884185
567, -3.3784695742629083
568, -9.498832061081885
569, 1.2843990754176957
570, 20.114152049023232
571, 16.968820818011864
572, -3.7495092012541136
573, -18.37908351255237
574, -25.862568489483692
575, -26.22802237033511
576, -19.434086082824706
577, -5.016307031823999
578, 16.670280876076504
579, 26.058831637513777
580, 18.358066400440293
581, 10.177590894527839
582, 8.810140239218526
583, 13.906555778850361
584, 25.8056265123314
585, 36.614384555776724
586, 41.996279243893696
587, 38.514419052945414
588, 23.08438390925039
589, 4.024092618658415
590, -8.100317102402641
591, -13.721527426862849
592, -12.176524692463317
593, -6.674703584416875
594, -3.8122956956171947
595, -2.0765174485532043
596, 2.691775841204162
597, 9.01102771244814
598, 8.877899368774706
599, 3.514617461702528
600, 2.0290968538165544
601, 4.933092985620533
602, 9.887267507021079
603, 15.532383506507358
604, 18.40167507457454
605, 17.778904531528042
606, 14.270189860575101
607, 8.130438805299946
608, 0.7687381838291003
609, -7.037727758635356
610, -10.72187212058634
611, -8.350358038769627
612, -6.448773432953658
613, -8.633630380317754
614, -8.166704447507527
615, -0.01778852326606284
616, 7.651354171054209
617, 6.6719809225337485
618, 2.4094327794118726
619, 1.3443840086029013
620, 1.7117803443898083
621, 1.1167809729349756
622, 1.4036107235833697
623, 6.069368800052871
624, 13.792421801998898
625, 19.8646350473241
626, 23.488930981472095
627, 22.920402580934024
628, 17.958270997433374
629, 8.260844069368886
630, -1.3086169954312936
631, 4.415837147139882
632, 23.585069555173504
633, 35.97692395062904
634, 39.230358204851655
635, 34.86533752500736
636, 23.821027268540547
637, 11.17253635366751
638, 0.09422306840679084
639, -0.9583144120060751
640, 8.750273391781775
641, 11.587971036677573
642, 3.15991706644445
643, -4.361726853004711
644, -7.689867421078816
645, -7.868898515605906
646, -5.198110345610985
647, 0.760406100862383
648, 10.487651453688613
649, 14.528152702134776
650, 7.858826481070992
651, 2.2480574641949715
652, 5.430219984687028
653, 11.394085648584678
654, 14.873750899173956
655, 17.46782613495043
656, 20.56834463907262
657, 18.441952796645182
658, 5.246861502092088
659, -6.632876275460603
660, -4.336394439087144
661, 5.686586099549459
662, 15.303388964169699
663, 23.532070605980152
664, 29.813065803662084
665, 30.752736069729963
666, 20.395581615368428
667, 5.126702524313259
668, -1.6907320738887393
669, -0.717824793201089
670, 7.421508470503795
671, 18.794984656549786
672, 21.015862187591665
673, 16.21604351135693
674, 11.711091767440394
675, 7.382892454778357
676, 1.6080338465358182
677, -4.00323364824726
678, -4.799542336513241
679, -2.532058347797374
680, -4.652310316094827
681, -9.917093440959889
682, -10.124066259674237
683, -5.156231726746682
684, 2.0409268210942173
685, 10.092648056633152
686, 10.673417953100397
687, 5.7019828376242
688, 11.383293036131818
689, 25.213784367998414
690, 23.341106925813165
691, 5.969820381722911
692, -1.8408186462970662
693, 1.340189105956597
694, 2.6894217383028263
695, 1.2279182866095653
696, 6.1929869033069735
697, 18.002523751242734
698, 21.167418229014856
699, 13.967910018267503
700, 7.975027475686602
701, 5.585637654343373
702, 5.816085419226056
703, 7.593653494342107
704, 3.4605931846576823
705, -6.43477898984338
706, -8.318850917475629
707, 0.30855376389172307
708, 8.9057879240263
709, 15.947260967866441
710, 29.242287926018435
711, 48.02662359577971
712, 59.448184952869724
713, 60.632603103510974
714, 60.68665081836798
715, 62.0846820295551
716, 62.72956743782288
717, 62.08711670045568
718, 61.263712125130496
719, 60.06805597003131
720, 51.75312714502479
721, 34.74287702237916
722, 15.356646557496788
723, -2.2489953021145084
724, -11.011646678542093
725, -9.485680275557115
726, -2.860404964436384
727, 7.413886765433745
728, 16.353769572117926
729, 21.048267109384597
730, 17.442592035341022
731, 5.5855837393201
732, 2.3855745617474895
733, 11.07809625937989
734, 14.199104814271777
735, 7.693751955852349
736, 4.486643471502703
737, 7.578167300188397
738, 2.3672810149359975
739, -12.635619756100368
740, -13.314450727606982
741, 4.3421715869321815
742, 9.656024013456317
743, -3.5446160551373396
744, -11.26356687269572
745, -9.126931583486112
746, -7.887765006003519
747, -8.512248507251115
748, 3.558642914236316
749, 29.186672629816712
750, 35.96333954320198
751, 19.729673232241566
752, 4.5954733030635
753, -3.8485178436212664
754, -6.5441692405565846
755, -3.8783034890393537
756, 3.7544623617404795
757, 14.703212028198777
758, 14.161996932852162
759, 2.126568022707488
760, -6.522643608152521
761, -9.619015569704516
762, -3.9248792623129702
763, 8.006384804727986
764, 8.55260630609564
765, -1.1852293708902835
766, -5.3155829545144115
767, -2.0506893021311043
768, 9.95855522283864
769, 29.988728668503427
770, 49.33931040876632
771, 63.248350494967326
772, 57.878823591633136
773, 37.416995273809334
774, 18.595702508373506
775, 7.339324352968561
776, 10.608005331220284
777, 22.924865603334183
778, 27.142390434940353
779, 23.9369544501551
780, 16.706187386151214
781, 8.318876453282883
782, 5.233939889150861
783, 7.267658840451531
784, 14.54142851350889
785, 23.195473037298143
786, 28.140353423247234
787, 26.390520333162385
788, 13.774743410592691
789, -0.4615384026110405
790, -4.767282251476445
791, -0.15162391826243038
792, 13.18266091298392
793, 28.84254919998284
794, 38.352417333516314
795, 39.774170162027076
796, 31.603439911760688
797, 17.670217274995593
798, 0.7884059621892447
799, -6.911880473112888
800, 0.39584927431087635
801, 6.269961326051089
802, 3.1804912605916797
803, 4.133204342841964
804, 14.30125649591946
805, 21.19927529432971
806, 20.771135305620646
807, 18.394280387878098
808, 15.18205911175437
809, 5.177276735065334
810, -10.04386513531017
811, -10.387357979139324
812, 5.878684393052481
813, 20.5113950325499
814, 28.738627718467797
815, 27.577415593861588
816, 18.260817526272604
817, 8.130785940685655
818, 1.0979620451485061
819, 4.525351792195124
820, 15.14869887468194
821, 19.61059832391038
822, 18.859442884117016
823, 17.32644286297318
824, 16.441009019870307
825, 18.675373371069327
826, 21.12219755935439
827, 18.883614966083314
828, 12.86259404361681
829, 4.352598355407736
830, -2.634237841488357
831, -5.0454304751879135
832, -6.074845252798241
833, -8.233367539254687
834, -8.84317774943247
835, -6.117563901671019
836, -1.769527393986209
837, 3.658812672652857
838, 12.127066960602406
839, 23.10486377343932
840, 25.39644927751806
841, 16.887719205182293
842, 14.089135183095095
843, 19.344724601350208
844, 17.854046938734882
845, 8.678422983249675
846, 4.270285115175284
847, 3.956972816628422
848, -0.9119227178325673
849, -6.047664056632584
850, 6.975687668651062
851, 30.730868188721615
852, 38.39100334873274
853, 31.987523567289372
854, 18.130036533276325
855, 4.088159950730642
856, 1.053461455479919
857, 5.1628809851422375
858, 12.607192832229885
859, 14.701965917459347
860, 4.674530684237652
861, -7.665107405822255
862, -17.453420581829505
863, -19.476313358744846
864, -11.221553621926432
865, 3.8720869316098288
866, 24.11317012200925
867, 31.25239318535705
868, 23.775248703816942
869, 26.008449938429294
870, 37.821437056265495
871, 33.41102534296033
872, 15.747735151549023
873, 9.826845325605518
874, 13.03793044262784
875, 7.76185244666749
876, 0.37907534198666326
877, 3.671680225683758
878, 11.217000983896014
879, 11.878986518633155
880, 10.851006827625952
881, 13.792493167420162
882, 13.970200024194128
883, 6.545413939795253
884, 3.07141041888417
885, 8.526133731651498
886, 10.786564437465586
887, 6.235772085613917
888, 7.243605060664322
889, 15.674493452454499
890, 19.473376791902865
891, 17.14956076235876
892, 12.471986098451453
893, 5.452638950393066
894, -5.0620533552819325
895, -15.37484352066349
896, -14.595598584877735
897, -6.154236275491257
898, 3.815959732547526
899, 13.450506465980197
900, 19.08898969388474
901, 18.027574922649364
902, 8.34856176043968
903, 1.6734509632133268
904, 3.8545921392496894
905, 1.1266740168894103
906, -10.02102596424129
907, -8.381418024622235
908, 8.046824343184653
909, 13.78412491353265
910, 9.395219687919507
911, 18.027786019477844
912, 32.82081310491776
913, 29.615080743009003
914, 16.240231961598965
915, 11.054984560242701
916, 8.421784032936102
917, 1.0919499577712486
918, -1.4856342418183885
919, 8.842683116095941
920, 14.962648208554583
921, 7.901938558616166
922, 3.5566402508147803
923, 6.825248726382597
924, 13.894816267639271
925, 22.317847798090042
926, 27.918100256033085
927, 28.15318832918547
928, 16.029260248531045
929, -1.0915167123253013
930, -3.4184429944384647
931, 6.556294199885997
932, 24.61860568441807
933, 40.35028730062504
934, 43.70375357511193
935, 36.78899846618333
936, 21.280440390381955
937, 4.247429107896096
938, -9.755442405633858
939, -9.751897942152027
940, 4.370626814069965
941, 13.621256744845596
942, 16.72595522690108
943, 23.88095959348857
944, 31.005192460862872
945, 25.68821713355419
946, 14.335845562809027
947, 7.822330281819632
948, 5.053227052022066
949, 3.8943624979674496
950, 7.281806746537313
951, 16.815832231644436
952, 22.322992705935576
953, 20.507376753070275
954, 13.12925197320692
955, 2.7637823477361962
956, 0.386831841323783
957, 5.316688476449144
958, 12.334011192180242
959, 18.929986544671465
960, 22.111509138124802
961, 19.00283223493534
962, 6.489531222116966
963, -5.089164737722058
964, -10.515683661946696
965, -13.14245918608276
966, -13.64815063246806
967, -4.938052852934106
968, 12.518565361899164
969, 24.069690665145572
970, 29.08767692502215
971, 36.838700362878626
972, 42.77761722965124
973, 37.106580934881094
974, 27.920464429116237
975, 24.33599921947689
976, 18.438184586416355
977, 5.580494565452682
978, -6.6864439203041
979, -15.781313565313667
980, -12.984888794540893
981, 1.7572803385037332
982, 19.19742309161802
983, 40.05535854825348
984, 63.14299554733543
985, 75.79024032956113
986, 58.28928733685916
987, 33.04300161051469
988, 19.132997239057204
989, 1.2586034516270956
990, -27.31934319987613
991, -27.1894082984536
992, 4.158950689040012
993, 13.642506878225504
994, 5.533124441934433
995, 18.7627040516777
996, 43.24229667520285
997, 50.25424828776295
998, 56.48247814485694
999, 79.25894418409644
1000, 91.601482688342
1001, 79.91884475841835
1002, 67.77988008221382
1003, 61.76148105946322
1004, 55.232278131110434
1005, 46.64427077833079
1006, 34.71808773364046
1007, 20.461094707115535
1008, 8.079699760872245
1009, -2.196843239906684
1010, -9.756590536675048
1011, -7.435548697492322
1012, 8.133293781194425
1013, 20.720796853598586
1014, 24.65491800770542
1015, 24.3166039741659
1016, 19.556573031672997
1017, 7.566272887498144
1018, -4.41682239821921
1019, -5.833924301146453
1020, -4.600663068227732
1021, -7.515209693963698
1022, -0.9424936960799641
1023, 20.2728381964057
1024, 32.28621114038333
1025, 30.755159415760772
1026, 25.46018141570039
1027, 18.04890122505276
1028, 9.416382446584521
1029, 7.538589397371197
1030, 21.743801922805687
1031, 33.70064978255323
1032, 31.46438409002576
1033, 20.620279481014222
1034, 5.464535294640427
1035, 2.0720613309222244
1036, 9.989138999962961
1037, 19.304230527703567
1038, 26.85904352026955
1039, 30.360127615397687
1040, 22.698950920756943
1041, -1.6286946245263607
1042, -14.349717473825876
1043, -6.011107757901755
1044, 0.8299387117822334
1045, 2.551525076797134
1046, 5.109536524952091
1047, 5.124193699964053
1048, -5.63953779137546
1049, -17.75901196221548
1050, -21.296160117120507
1051, -21.796797514255104
1052, -22.010542706046635
1053, -21.001322516504842
1054, -17.22134716429082
1055, -4.699500627777979
1056, 11.884174224421713
1057, 17.23911145072816
1058, 13.198947846058672
1059, 2.7696172529385876
1060, -10.804175617913188
1061, -26.223053248238102
1062, -33.683881421015485
1063, -31.818169633284924
1064, -25.597083105409638
1065, -12.428797741298695
1066, 15.18238431468535
1067, 49.30023565687043
1068, 80.96724932102643
1069, 118.50183714772174
1070, 169.16161872378598
1071, 228.8080214605111
1072, 296.3797511495095
1073, 358.46647085902805
1074, 407.63604693053867
1075, 431.4951103198796
1076, 435.75020165956994
1077, 426.86820347039475
1078, 417.6256246814264
1079, 411.47370807996776
1080, 388.13957455918217
1081, 346.24338588190903
1082, 296.9806867531256
1083, 244.38395457815432
1084, 193.6810367906669
1085, 145.16817368329475
1086, 98.72721589655293
1087, 59.381683473398425
1088, 23.83441253268711
1089, 2.9818012902337614
1090, -4.366307577652151
1091, -3.044985627977894
1092, -3.5307254420549725
1093, -18.70971829150949
1094, -32.572093015760856
1095, -36.38881680093664
1096, -27.648538513375115
1097, -8.844003321527907
1098, 5.060003901651726
1099, 8.214866922321107
1100, -8.62909427169734
1101, -21.94297775423911
1102, -14.077554459414387
1103, -6.964613454738355
1104, -7.036998577196755
1105, -6.35184485257696
1106, -4.043155587599358
1107, -1.2020088986473638
1108, 6.204095072601376
1109, 22.7908816352151
1110, 27.56986814133097
1111, 13.713239362485183
1112, 9.1617548017839
1113, 15.850710939753753
1114, 15.12143130361892
1115, 9.069327255008375
1116, 3.062717255365442
1117, -4.051122490795933
1118, -12.63776447120108
1119, -8.771803591525895
1120, 5.324170132175368
1121, 2.2491242601677186
1122, -10.458799256893599
1123, -14.890416437568092
1124, -10.50077384839642
1125, 3.40782488236664
1126, 25.621664042158045
1127, 49.690588797100645
1128, 50.051889775424115
1129, 32.10505919392108
1130, 14.26349338338241
1131, 3.9771942569987004
1132, 4.738598535691381
1133, 14.005883449026896
1134, 30.137659861803968
1135, 43.10606646677161
1136, 48.214994833719174
1137, 37.813592457876894
1138, 22.68422593430887
1139, 12.63049187885963
1140, 3.6148674073078837
1141, -5.247568843376939
1142, -3.7096001124127724
1143, 3.765278389305422
1144, 3.6672638081809055
1145, 4.848227458305701
1146, 15.210933432403635
1147, 21.004876167834027
1148, 18.731231328915328
1149, 15.943499208529374
1150, 11.118940288502472
1151, -1.3683139958811807
1152, -12.08936487724668
1153, -14.04335336264603
1154, -9.680657529512246
1155, 0.5605523669314607
1156, 17.219099379315594
1157, 33.258219600608754
1158, 35.37617220485754
1159, 29.58905982863098
1160, 20.626320756192854
1161, 9.116987904549205
1162, -2.0558844384463555
1163, -6.808674900353253
1164, -4.91981151466689
1165, 3.503108654251264
1166, 5.881317368110558
1167, -4.2408356838072905
1168, -8.19344969165968
1169, -4.282239690880033
1170, -0.39785773385892753
1171, 10.01533819641918
1172, 35.666157302264764
1173, 42.58737581861715
1174, 20.68598487205827
1175, 7.443325810249007
1176, 7.287722090835359
1177, 12.28160548813048
1178, 21.176410279845186
1179, 30.474876355917786
1180, 23.836303531949852
1181, 3.534178433204488
1182, 7.180557094135565
1183, 24.615580438990037
1184, 28.17888025009688
1185, 23.064943637425586
1186, 12.821795630128236
1187, -3.5298714249929617
1188, -16.6194238689327
1189, 3.463420438301455
1190, 26.68462739068491
1191, 13.691870249909698
1192, 0.2213763137897331
1193, -0.8487734639720657
1194, -2.756481723414254
1195, -6.432598988071277
1196, -9.647329408253427
1197, -11.08594755424383
1198, -8.851312082405457
1199, 6.986749947815497
1200, 33.3619611665481
1201, 45.51833522240804
1202, 39.07643227528206
1203, 12.463126479954099
1204, 1.869187147201501
1205, 17.565826582729642
1206, 41.537296616191725
1207, 66.57104545452557
1208, 87.63430542664082
1209, 91.74569073321027
1210, 72.60030313634661
1211, 50.6409788654305
1212, 30.523488282882226
1213, 11.434396131374797
1214, -2.2440171418343198
1215, -8.307998565474918
1216, -4.484345023755395
1217, 6.019846004880037
1218, 4.152920737743443
1219, -3.8494428692461042
1220, -5.407016864305206
1221, -6.781882632169527
1222, -8.927549539223037
1223, 3.4017285558547883
1224, 20.63884820709427
1225, 13.096775467000953
1226, -0.9146437295926262
1227, -8.098953399293805
1228, -14.11177416867531
1229, -18.452180497666177
1230, -14.6558418719369
1231, -8.62891990760727
1232, -5.836202222966222
1233, 3.47845224560524
1234, 19.37235533281637
1235, 25.766760264317327
1236, 22.811721685387056
1237, 13.134760827521404
1238, 4.98133172529424
1239, 1.6089127797031324
1240, -1.2404277071655088
1241, -1.9841479878350583
1242, 3.1397179543050697
1243, 5.043887193932278
1244, 1.7551742242453656
1245, 11.95915080304485
1246, 27.791920323508748
1247, 23.207878812567287
1248, 18.776404052104226
1249, 28.33779936508745
1250, 36.13372351687303
1251, 44.78650661615893
1252, 67.62677519669751
1253, 76.56439674788317
1254, 53.47387231878747
1255, 31.82738968182821
1256, 19.13589661265314
1257, 15.140373889210423
1258, 21.813346037896736
1259, 39.837070168533046
1260, 43.40471708136647
1261, 32.67930447532126
1262, 27.951013574842364
1263, 21.830510471679645
1264, 10.430057874873455
1265, 20.3903423194447
1266, 51.55108017181465
1267, 71.32925548970115
1268, 79.10371725883351
1269, 75.87439720011298
1270, 52.2065555174845
1271, 17.419773861718113
1272, 14.077613255717552
1273, 27.53725745750853
1274, 36.98592152636638
1275, 24.9001775805541
1276, -2.4984141764284686
1277, -6.393509548423026
1278, 9.74771556743417
1279, 39.498172225210055
1280, 58.999153903364004
1281, 59.455312401379615
1282, 35.30483689673201
1283, 5.623256495515761
1284, -10.475888206113268
1285, -17.897807299072156
1286, -19.987492166168977
1287, -21.86978666555592
1288, -13.425231615065968
1289, 13.062371772112328
1290, 33.539253599631365
1291, 38.994204946405944
1292, 27.88900690441733
1293, 14.140579375666675
1294, 10.729176828313484
1295, 22.44599854426201
1296, 41.64788910654215
1297, 49.683556168093446
1298, 38.702803712522154
1299, 8.565969207774287
1300, -6.4007670475577925
1301, -5.98571979068106
1302, -0.3538821686747724
1303, 3.7472007061301156
1304, 3.24283976515585
1305, 0.8419388637430529
1306, 0.306676931840002
1307, 7.184979319315971
1308, 12.07356451952137
1309, 9.174820924788719
1310, -8.144535647454404
1311, -23.7023655445214
1312, -16.665420459369216
1313, -3.5842143048923845
1314, 6.682603041265111
1315, 0.8587903414663742
1316, -6.78090076543026
1317, -2.432182076748404
1318, 8.75369599927194
1319, 26.213548608144492
1320, 48.53664411055365
1321, 54.732759115906674
1322, 35.61832925295971
1323, 32.583998869873994
1324, 38.015952377140366
1325, 22.029494998825612
1326, 10.378262569904564
1327, 12.741771581095236
1328, 4.2649492776627085
1329, -6.129208683741126
1330, -4.235295984646882
1331, 1.1693408969042594
1332, 7.857308114418856
1333, 18.02729828663587
1334, 24.0727447345389
1335, 19.496557133668148
1336, 0.9902806091599814
1337, -18.119513626098524
1338, -9.103977481571974
1339, -0.7928422224529186
1340, -5.0720698621969404
1341, 4.213035411767123
1342, 18.151604197430288
1343, 17.69398259487093
1344, 23.64405420610842
1345, 34.79061316572074
1346, 21.568001957875822
1347, 3.7829027149552985
1348, 0.2463325817786881
1349, 6.116904336648531
1350, 13.961891813947886
1351, 9.129820268678941
1352, 2.1138718387776407
1353, -0.08655966859851105
1354, 7.936887609048881
1355, 20.51602929449905
1356, 27.146434078792254
1357, 13.471593432836016
1358, -12.022770054925559
1359, -16.84075842491643
1360, -8.98463373917366
1361, 6.090662353254174
1362, 28.81799215014439
1363, 49.1114914764255
1364, 53.74317638603793
1365, 52.84430789335556
1366, 44.40369025031123
1367, 10.661243518015908
1368, -10.929031326903441
1369, 2.120779694357225
1370, 22.892633604137927
1371, 37.354576939130766
1372, 31.669551325088833
1373, 11.395769400984364
1374, -9.260062858376614
1375, 4.0543128103345225
1376, 30.779976236211496
1377, 48.76962808667122
1378, 47.52688091109803
1379, 37.75359365438521
1380, 41.137854783719376
1381, 50.73955304498122
1382, 57.79537691529981
1383, 42.81674510575681
1384, 18.774534378952012
1385, 1.0962288025468752
1386, 1.9696199598272415
1387, 11.532888854022303
1388, 9.433900303936525
1389, 0.17873930531550286
1390, -10.84981404904488
1391, -9.888242183425064
1392, 5.446495709493547
1393, 32.24604437299263
1394, 38.52520264630675
1395, 30.062790435971237
1396, 21.991905732577607
1397, 15.020748809110728
1398, 8.575975436098133
1399, 1.617229002164322
1400, -4.472895150897557
1401, -7.2233098155027164
1402, 1.5939145399784138
1403, 14.790968762354396
1404, 21.690728004646644
1405, 14.716193451869458
1406, 1.6109949562514885
1407, 0.5216646384872092
1408, 1.265585729393024
1409, 1.7124174795776526
1410, 9.365890897458712
1411, 10.320179067530262
1412, -0.6220367009034362
1413, 8.211439002462612
1414, 17.415455879168576
1415, -2.0761116984299406
1416, -7.459779569393049
1417, -0.55631607249029
1418, -10.575877221989685
1419, -8.364258260852239
1420, 10.267716878830697
1421, 5.220626939533304
1422, 1.0388990118394759
1423, 15.875696484651371
1424, 26.28014515729683
1425, 28.575888955799883
1426, 23.878608725010054
1427, 18.79685096312005
1428, 13.678847883784101
1429, 5.458957530722955
1430, 5.483136932228035
1431, 12.549335635243324
1432, 4.856529072948206
1433, 4.673681168535268
1434, 21.636876027824883
1435, 14.846648112085404
1436, 5.343048077404319
1437, 21.529955002610905
1438, 27.145982796256703
1439, 21.995539158900556
1440, 20.611950180584927
1441, 7.59511874309419
1442, -11.963282259054267
1443, -12.900377071950743
1444, -3.6902272143954633
1445, 8.893231657603792
1446, 17.032672548412165
1447, 23.582093901592998
1448, 30.879290580122415
1449, 29.975990930688795
1450, 21.88381326980243
1451, 9.961464271026216
1452, -2.2616443761378378
1453, -6.970382405499322
1454, 9.154307638857745
1455, 28.340057547822425
1456, 39.94368627492804
1457, 37.78957212117302
1458, 46.43290009141924
1459, 66.47899950542342
1460, 57.80745340008434
1461, 30.12667581453252
1462, -3.995416050624044
1463, -27.422053166267006
1464, -25.2363472620234
1465, 8.851327695221471
1466, 23.64851294796449
1467, 20.750059371039924
1468, 18.128160402716958
1469, 31.179965801431308
1470, 45.98561098964251
1471, 36.823776327263204
1472, 23.3827569812197
1473, 15.69247379290573
1474, 22.45258445494619
1475, 33.682127955616124
1476, 39.65235923636283
1477, 23.514755118169205
1478, 8.565210775042033
1479, 5.443211550547403
1480, 0.8740684322476682
1481, -1.3114179216590856
1482, 0.7866306865043953
1483, -0.32834394181963944
1484, 2.859594236513658
1485, 14.70504500301513
1486, 15.007479693102368
1487, 16.201500842380256
1488, 31.431225688616678
1489, 32.05691744314959
1490, 19.436768173835162
1491, 4.122854385273513
1492, -3.76141057289783
1493, -3.998812692787169
1494, 0.3660864412433966
1495, -0.4498891233499762
1496, -4.6004842916483994
1497, -3.43835404506558
1498, 2.384305345040275
1499, 11.971598608211252
1500, 21.9024892608154
1501, 18.41977492266915
1502, 5.9932094287310065
1503, 8.45834596091504
1504, 8.679665611325845
1505, 5.823806433773143
1506, 18.33705066979701
1507, 13.22432322292002
1508, -10.03846776731666
1509, -5.212385142533094
1510, -1.6176404068446573
1511, -7.629310749181059
1512, 5.519365000715425
1513, 15.455276570641445
1514, 12.158944730226267
1515, 15.680785608379892
1516, 12.11296540937974
1517, -3.5270771705052084
1518, -13.24697775761365
1519, -7.075466438391459
1520, 14.866990310244091
1521, 26.28816450621116
1522, 29.916225810647347
1523, 27.0382524989609
1524, 7.420922155009293
1525, -5.06757775883716
1526, 0.21073533635831154
1527, 2.110459856124635
1528, 5.268950850522742
1529, 12.773128716762358
1530, 15.068874604956363
1531, 9.9884912363093
1532, 0.26840460566677393
1533, 0.8170355110628407
1534, 2.7363575844979096
1535, 1.7649908421224154
1536, 9.79435901861757
1537, 11.949553840562203
1538, 1.7213866851127477
1539, -3.7223002648336205
1540, -8.130426718005083
1541, -13.480902920371364
1542, -14.029044932978877
1543, -7.569813483027019
1544, 6.120652963529665
1545, 23.14007603839991
1546, 30.732009645314974
1547, 25.47234846397805
1548, 17.71218896921164
1549, 5.690506855619105
1550, -6.5240765899122835
1551, -6.294034001346745
1552, -6.711594876179106
1553, -6.398905941472776
1554, 14.884894206584931
1555, 29.532599741198737
1556, 26.825833699214172
1557, 11.666950134300123
1558, 0.9201142469919432
1559, -5.306907814928991
1560, -18.792169573318233
1561, -17.197434785352925
1562, -11.450328688864147
1563, -29.604158255246602
1564, -16.49418872112824
1565, 9.343444812693178
1566, 2.5802829513927463
1567, 19.351724681734822
1568, 32.75015774599615
1569, 0.4716430431030858
1570, 10.05742692596914
1571, 41.01882470598707
1572, 64.2740536658439
1573, 120.40580065316817
1574, 174.68289066524812
1575, 206.26276605357134
1576, 245.4765738985352
1577, 265.725746436774
1578, 255.47848224301424
1579, 243.17389588509036
1580, 248.33010677434686
1581, 270.9389534793668
1582, 286.3821667825398
1583, 283.1460536344248
1584, 256.4074423797947
1585, 207.02454604527475
1586, 166.97745128911492
1587, 131.39228256761976
1588, 80.72604333172012
1589, 66.22452673586804
1590, 69.68869438854153
1591, 54.931000919403914
1592, 43.90546150172804
1593, 24.84520093239007
1594, -6.268551838433268
1595, -20.477260067370707
1596, -29.035161112906053
1597, -36.11617969312738
1598, -25.55855575070882
1599, -12.48936225115881
1600, -5.147051944624536
1601, -5.509783487101913
1602, -3.151151521539532
1603, 3.909088792799821
1604, 12.534570824091588
1605, 14.600612304827791
1606, 11.578661717055638
1607, 6.685323132001031
1608, -3.002507307086489
1609, -6.335726870144299
1610, 1.3708609616792273
1611, 5.754361797184174
1612, 8.842268754169709
1613, 10.651378695352605
1614, 6.923164241219183
1615, 4.464849021970622
1616, 7.004838791817747
1617, 13.530437112417303
1618, 7.0851303326030575
1619, -4.709925133454817
1620, -9.386861155800261
1621, -6.006755871931773
1622, 0.8171016068477002
1623, 9.070639154257606
1624, 20.744898235032224
1625, 19.344877259156647
1626, 10.158547923102333
1627, 18.10804336849924
1628, 14.871071451406806
1629, 8.432707937208761
1630, 16.93871122094606
1631, 19.385565358618805
1632, 25.833995887816627
1633, 38.99016554294985
1634, 32.205707982685226
1635, 24.080605374291054
1636, 16.359906160628952
1637, -5.47636612596034
1638, -7.439820376272337
1639, -1.6525180085961892
1640, -9.296016807017168
1641, 6.7071626744677815
1642, 18.10675850793109
1643, 10.04855345998044
1644, 21.72844350614764
1645, 27.64967432459639
1646, 24.768963469491155
1647, 27.217396068677772
1648, 13.628029769029126
1649, -5.383970532480134
1650, -13.665306452825234
##END=



