##NAMES=
##LOCALITY=
##RRUFFID=
##CHEMISTRY=
320, -0.720297113795823
321, -5.705557025994494
322, -10.565024893444388
323, -11.893130196514903
324, -10.182492690474646
325, -5.8925569400735185
326, -0.410020903743316
327, -0.1427325901167933
328, -4.90317496003172
329, -6.929960784231298
330, -4.424299565608635
331, -0.5919353405934089
332, 3.053901052899164
333, 4.523316580912251
334, 1.2231099989221548
335, -3.4623455677665333
336, -0.9890557087965135
337, 7.926442097922518
338, 14.976602941729652
339, 17.96726734859658
340, 20.344445958327924
341, 23.416726016909706
342, 24.71174486350992
343, 22.19519014833986
344, 21.76108683982875
345, 36.4992040919924
346, 57.312408516849246
347, 56.17857492044732
348, 32.44546963814446
349, 6.554625631131785
350, -15.411125376087512
351, -19.7524341387425
352, 1.287959924853567
353, 35.01907099808068
354, 64.54809742005637
355, 85.29223220196764
356, 86.29680844252562
357, 69.46362193282584
358, 46.81840288239982
359, 21.23766886788053
360, 10.473976696218415
361, 18.005717062145777
362, 25.54953017797925
363, 19.345086897385045
364, 7.987001047269587
365, 4.040388024991444
366, 6.4125216131878915
367, 13.19581097874834
368, 23.470642954086543
369, 27.288734343723263
370, 23.797413765100828
371, 21.647679356906337
372, 23.76501589794225
373, 24.906336202828243
374, 21.45786099079851
375, 17.961018582313045
376, 21.094171062761234
377, 25.135658328150384
378, 13.166573287000574
379, -11.091247203031344
380, -19.65303505524389
381, -9.924932350231757
382, -3.479364528957376
383, -7.334828109974296
384, -10.087801074604613
385, -4.031493489164859
386, 3.778829581545324
387, 2.9222065129333714
388, -3.4510825515999386
389, -6.784375135499431
390, -8.1819660551364
391, -14.865367689808409
392, -27.65634188151853
393, -35.54642853392579
394, -35.52535034500761
395, -28.80642525852636
396, -15.437289854495248
397, -1.9680303173090579
398, 3.4000367301086953
399, 1.5453844268940884
400, -5.733171595937165
401, -16.64786931528033
402, -21.321667993513984
403, -19.064519361116254
404, -11.226786557728701
405, 2.2564979829203367
406, 12.619256199001029
407, 16.109481514721665
408, 21.268449798965776
409, 36.07029329175475
410, 58.587261645639956
411, 84.98672668364816
412, 119.08763407687366
413, 156.69054497482102
414, 197.0420905201936
415, 233.10576347226743
416, 264.0095524501994
417, 295.6465082673012
418, 329.85169213911377
419, 354.2000429099862
420, 360.9662144480817
421, 354.25638467894714
422, 339.00699747937324
423, 319.1885834953173
424, 303.5984209794342
425, 290.98809118403005
426, 275.021320388214
427, 254.52806624386358
428, 225.52542913291109
429, 187.50531255504666
430, 147.48814916911124
431, 108.27867782629619
432, 88.0748775978991
433, 90.03110760917025
434, 95.34144352940166
435, 90.73053616444213
436, 76.12852514075075
437, 51.523718499128336
438, 20.470741060356886
439, 0.017003124219627352
440, -10.217204020500503
441, -11.313786924474698
442, -3.9940792703446277
443, 0.6334540730704248
444, -1.4747099129863273
445, -0.24578291547004483
446, 11.41887671099721
447, 27.68072690118879
448, 38.65987292794125
449, 43.04528415553432
450, 38.0297829522824
451, 25.668134446373188
452, 14.06105436371763
453, 6.655390273077501
454, 11.360824900816624
455, 29.276449956734723
456, 44.47629966063596
457, 51.94711179143269
458, 45.786027475264746
459, 22.681090334864166
460, -0.08845256290896941
461, -5.528378449398588
462, -2.2434994938339514
463, -3.8125409291433243
464, -10.463785616462701
465, -22.365946879203875
466, -37.62470621515786
467, -42.736132481803
468, -36.646009142057665
469, -22.897242501746405
470, -1.8774665190521773
471, 12.210197445855556
472, 13.027154590792634
473, 2.7168441385965707
474, -17.026959902629642
475, -33.88564719179067
476, -33.15096536842884
477, -21.539944018885762
478, -10.948012724059481
479, -0.644534626209861
480, 10.370828083691777
481, 22.064279428131158
482, 27.53006986422224
483, 26.89681676856344
484, 29.198784372263617
485, 36.080653466230615
486, 35.77829020995978
487, 23.863733901985142
488, 22.312187468369302
489, 43.423342986772695
490, 64.15344878798987
491, 62.44790682619714
492, 47.370630421348324
493, 34.65742051568486
494, 21.64627624933746
495, 0.2748127228469457
496, -24.335000162360302
497, -30.44125471301959
498, -18.863782656504554
499, -10.544602046754335
500, -8.672830553156018
501, -7.436334819854892
502, -4.93386127940812
503, -1.629034230835714
504, 2.448627980265883
505, 6.093097446900174
506, 8.413767690529312
507, 10.311948310219123
508, 12.823290886086397
509, 19.519340131017998
510, 37.59715758508082
511, 67.39591675727297
512, 106.95527295644024
513, 147.30718467242605
514, 179.67582991172185
515, 203.29596393928387
516, 220.72380571891244
517, 232.99268260167264
518, 247.01438211108962
519, 264.62415637372214
520, 274.64708939796583
521, 271.78454957255053
522, 258.9547453796522
523, 238.2532815630002
524, 216.97256090596238
525, 203.2938889037523
526, 196.05197691660578
527, 193.24642717198822
528, 187.32430640541952
529, 159.31240030809658
530, 114.18873202245231
531, 73.94446275803875
532, 48.78596946106791
533, 40.29715083612609
534, 46.94758028613978
535, 57.451941242784414
536, 63.93492179248187
537, 61.15364106436846
538, 47.57852935598385
539, 34.773361640001895
540, 32.09666781932083
541, 41.75936733884646
542, 66.55656849660227
543, 89.10076258421122
544, 94.75189697589303
545, 94.61792085375782
546, 106.76875880694752
547, 122.67803923231531
548, 121.98981437762905
549, 108.13358038416663
550, 95.09580572332197
551, 82.17325509111834
552, 60.867767160402764
553, 32.25246185842025
554, 14.722665813810636
555, 8.504187563045889
556, 2.4447338972604484
557, -6.767270447759984
558, -15.914197431930916
559, -24.11117942686724
560, -23.337248521203037
561, -8.836995879049027
562, 4.889895481469466
563, 6.727475958633477
564, 0.14961637745182088
565, -11.082343359516926
566, -22.041286854363534
567, -24.63431443417994
568, -18.61231666234835
569, -2.505763122031567
570, 17.85480272257064
571, 21.536010476022057
572, 9.690680689146575
573, -8.244200796978475
574, -28.398437964408913
575, -32.719053639099
576, -20.141007224661735
577, -0.5519153956765877
578, 24.53107501197246
579, 41.84640265187045
580, 47.9649440956955
581, 49.22901391274445
582, 47.94517537201136
583, 40.79492702548578
584, 26.18894351568906
585, 11.754407885931869
586, 3.7485088466173693
587, -2.164664008937507
588, -9.749700280632169
589, -13.481207600951166
590, -6.053417249472204
591, 4.834153163573774
592, 6.069769793774412
593, 1.4013680532116268
594, -0.7081084560823001
595, -0.8171536352233488
596, -0.6228672366214596
597, 0.6717322474096363
598, 6.287546984413893
599, 15.415040153702193
600, 19.85884674306635
601, 19.166917736774394
602, 16.332841360658676
603, 12.323191491660054
604, 10.92747993617877
605, 12.228859968229699
606, 7.490974868579542
607, -5.118869124865796
608, -14.880169113548163
609, -18.664193107506435
610, -15.3680986588829
611, -4.164491605717103
612, 6.546481680707984
613, 12.431293132844985
614, 15.970198944847652
615, 19.411210680877502
616, 23.070675378776286
617, 27.236496002045442
618, 28.957566277403203
619, 24.801849405837856
620, 14.35486472980665
621, -2.980868176430249
622, -17.486183231455016
623, -12.552904213120655
624, 4.193792300171026
625, 15.703983977725784
626, 19.981067262801844
627, 14.598745338074878
628, 3.750982908207334
629, 1.9375794944726294
630, 9.13965795392187
631, 22.381847304454823
632, 37.03186149624025
633, 36.93338584810317
634, 22.53283234613673
635, 9.193749951729387
636, 0.8085761768902557
637, -0.2510274759506501
638, 5.231306008203319
639, 5.498000843449972
640, -1.5221192200688165
641, -5.803729652573111
642, -4.426663059188741
643, 6.370882126303513
644, 28.405030083577913
645, 50.13261674812702
646, 66.69973173789913
647, 64.1729861031722
648, 36.56741507387551
649, 12.15142972818876
650, 7.532161376282602
651, 8.213072707621905
652, 5.286265580006784
653, 2.073195492953346
654, 0.9439153059624914
655, -3.6029761849981696
656, -16.714784283229164
657, -22.06381701998771
658, -2.211367621221143
659, 25.24231494720607
660, 37.304491483396305
661, 36.97383171620004
662, 28.39213716035556
663, 15.644272838820598
664, 5.038804387629625
665, -1.0994785505959044
666, -0.31160234520211816
667, 3.082151696323308
668, 0.6059416260027319
669, -5.83122070890704
670, -11.57204772400155
671, -14.460614200432246
672, -8.523165830218204
673, 2.7079617993181273
674, 8.258818568059723
675, 8.476428619707804
676, 7.325351046133164
677, 4.929729896689423
678, 0.7974434951856892
679, -3.3785032642695114
680, -1.9445590199861726
681, 3.520932907810675
682, 4.361192895732074
683, 3.2343638439811
684, 15.64484229026857
685, 37.46946265278484
686, 41.55107904136139
687, 27.87210636323971
688, 15.016493549394
689, 5.6065917490268475
690, -0.16053443360078745
691, -1.5418243558729046
692, 9.813910411680808
693, 32.09341968461058
694, 35.00673045885378
695, 16.85744300323222
696, 4.223500393856739
697, 1.8784595097677084
698, 2.7133050704851485
699, 5.2741738346139755
700, 9.041547684392299
701, 12.45190219643382
702, 7.901338886720168
703, -4.3226693887932015
704, -5.297561350999331
705, 7.669648897986917
706, 16.45342674846279
707, 16.36197367479963
708, 18.361146684567757
709, 24.674319667515192
710, 27.69794180866029
711, 26.143735336751433
712, 29.206095004228246
713, 38.06574624831046
714, 35.802591813113395
715, 19.05914018051135
716, 6.944692907163699
717, 5.200860326879138
718, 5.8264974999251535
719, 6.705479154265049
720, 10.26614612142248
721, 15.957386263943135
722, 16.022219838480396
723, 8.946891353986757
724, 6.232994593544845
725, 11.268539474949648
726, 12.98121874866365
727, 8.266366903528706
728, -1.162231345676446
729, -14.043599317770258
730, -20.72121844499634
731, -18.71968112995819
732, -10.455114256745219
733, 2.9334483107218148
734, 8.246280681119515
735, 1.915256465856146
736, -3.1831504321849025
737, -3.6082043219021216
738, 3.432559050258533
739, 18.622668862292812
740, 32.414743514375914
741, 40.93251674882504
742, 30.1629920285136
743, -0.28182503311836626
744, -16.512664360778672
745, -12.64485368198575
746, -0.3004817406913389
747, 17.5648488168149
748, 30.13810575844127
749, 34.44393767669635
750, 27.0955668415113
751, 9.717803100935726
752, 2.0420719536355136
753, 5.628126521628019
754, 8.572578170416818
755, 7.81123754213877
756, 3.0792512510533925
757, -4.007038662033665
758, -5.600150372997177
759, -0.3896272147694617
760, 11.993388964307997
761, 27.55022746162649
762, 24.745260589355894
763, 6.15154877600753
764, 0.8550304831114772
765, 7.518760453516734
766, 4.977304581806948
767, -4.701588166548845
768, -5.320417438277673
769, 0.9057038629212002
770, -0.6295260040233188
771, -3.4651899414247964
772, 19.95324584946502
773, 60.308739250988765
774, 71.81538591396884
775, 59.505259890715024
776, 46.582465697020325
777, 36.38492497457764
778, 33.83859108765
779, 34.986978579810966
780, 30.173959584008117
781, 21.57339335711731
782, 14.44600524577254
783, 10.208405758577555
784, 8.094525799287567
785, 10.456963698644813
786, 21.711746324844626
787, 27.5927675231992
788, 9.095108354581953
789, -11.51336903694073
790, -9.415405347302112
791, 5.89696737371969
792, 25.377651039918874
793, 39.520994046261876
794, 40.084240205309925
795, 28.595665856531014
796, 6.424312302568069
797, -7.96860111386286
798, -4.063183957014189
799, 7.311289494787161
800, 20.423461105408023
801, 23.896873885755667
802, 12.97748186044646
803, 2.8082005948199367
804, 0.3513112823097799
805, 7.828796252897519
806, 25.255006036301893
807, 29.777148360087267
808, 16.450136872502753
809, 5.823185583239592
810, 3.422275561596507
811, 4.928816613547497
812, 9.465737491611435
813, 16.65955533110673
814, 24.621633123309493
815, 29.118857619821483
816, 30.6150706891317
817, 33.891130810396135
818, 36.864147975467404
819, 29.992729117658655
820, 13.494005837946133
821, -8.072785984255006
822, -27.78128172404422
823, -25.842689733804946
824, -8.69964620632436
825, 9.977463106631149
826, 26.097670085306163
827, 29.57987879123266
828, 25.798876542378366
829, 22.06384942126533
830, 15.80611799477174
831, 4.301795050493183
832, -4.350427675285573
833, -4.764308548930785
834, -4.5300176756959445
835, -8.273685594413564
836, -4.232041794232373
837, 13.554266002739041
838, 28.513098881714086
839, 32.3678994596562
840, 36.2250477644825
841, 42.57809332766283
842, 39.110331249704814
843, 24.859140666006624
844, 16.716294647889754
845, 18.092095533188512
846, 17.81257741284844
847, 15.507923022450996
848, 15.86137463926434
849, 15.62646466493834
850, 2.366472264586264
851, -15.538346295075371
852, -16.563562808005372
853, -6.706043116550063
854, 1.0396508388189432
855, 9.66447716366065
856, 23.976684408906294
857, 37.34617002443429
858, 43.23921820568512
859, 41.469651500026885
860, 31.944897412397495
861, 19.330347247740974
862, 6.681012262835338
863, -1.9434348555823817
864, -5.813857025940251
865, -5.823175246061055
866, -2.535965439364645
867, 0.27673241270531435
868, 3.2543224591604485
869, 17.418762091481767
870, 40.21709590608634
871, 49.06912939386393
872, 42.49933140487292
873, 27.04894827583439
874, 8.334666648107032
875, 1.0518177374974584
876, 3.927301752776657
877, 14.459927285801314
878, 27.647493979721276
879, 33.059468176209066
880, 34.84853976817976
881, 37.53836779369567
882, 34.56575802142288
883, 21.179529184424155
884, 6.409413380624301
885, -4.091166050050106
886, -9.024886657029128
887, -7.748924042192812
888, 2.3145741843973155
889, 20.480375230478785
890, 29.192940011436804
891, 24.986936942589182
892, 7.802044601238322
893, -13.704252011320932
894, -14.603364796045753
895, 1.9681172903256083
896, 24.710994582334934
897, 46.692824411074525
898, 57.306902262000676
899, 51.84273599089238
900, 24.97077045118158
901, 0.11975001691644138
902, -4.204667375720874
903, -1.2038618940887318
904, 2.221182927029531
905, 3.2750171135435266
906, 1.8145650426290558
907, 7.694823353954689
908, 22.468355935032832
909, 34.48072197783722
910, 41.575309309791464
911, 42.832690989323055
912, 38.41726668318597
913, 29.097298098842202
914, 18.859257664975758
915, 15.44737886488656
916, 11.67268355458873
917, -1.0635671475852178
918, -10.494322381356142
919, -6.178625263760296
920, 0.055277004520576156
921, 2.180655802803358
922, 5.845892399408058
923, 13.502482599842097
924, 26.050495890694037
925, 40.430591184963305
926, 46.440494133209995
927, 44.81570488006446
928, 44.541652991518276
929, 42.978792805535704
930, 31.459283293214412
931, 18.85424097928626
932, 22.208667401932416
933, 24.023116639468753
934, 8.08038128615135
935, -2.791660353514544
936, 4.165203907159139
937, 16.97439530157726
938, 31.413974829753897
939, 44.45725589573249
940, 54.030607900688665
941, 49.56667882360398
942, 31.058881433365514
943, 5.4164447865209695
944, -18.146460569294504
945, -22.454641819128028
946, -14.435359975030224
947, -4.8001753549547175
948, 3.892665039937583
949, 9.267510653342015
950, 9.828349353516842
951, 5.699283559032665
952, 11.339601754836167
953, 29.671064493434642
954, 35.42979800375224
955, 25.96098432470035
956, 15.667803244318293
957, 8.260409218416953
958, 9.893206274017302
959, 19.928793188079908
960, 35.18238313932943
961, 42.58945620497707
962, 27.45413059587372
963, 8.465928641795927
964, -1.0425470252589548
965, -3.404595430941299
966, -0.31268237917311126
967, -0.016633624591122498
968, -3.120188100057021
969, -2.0118221977945723
970, 3.181033636720258
971, 8.697297496539704
972, 9.753571808721972
973, -1.4823380270040616
974, -13.455610727558906
975, -14.21671815537502
976, -4.521382051976161
977, 15.353359721465495
978, 30.524726057536554
979, 35.05357724429632
980, 27.922102522390105
981, 14.187043560682014
982, 19.071159793867082
983, 34.413189446829165
984, 34.83443370544819
985, 23.496716000910965
986, 7.4115657035599725
987, -4.111157615067441
988, -4.95769524492016
989, 2.2038307299158078
990, 15.630102112289023
991, 21.15843451835326
992, 16.39467732069943
993, 10.808677542172518
994, 6.423894368935635
995, 5.5092461795761665
996, 6.788122681480218
997, 7.275108157218256
998, 5.089487436151558
999, -1.500262958181338
1000, -4.5973386280370505
1001, -0.5783924592210496
1002, 2.2425046062703586
1003, 1.565220868067172
1004, 0.473526014404797
1005, -0.5001737379061524
1006, -1.031891592258944
1007, 0.9274130210069416
1008, 9.578455079584273
1009, 15.385191322618084
1010, 8.496347677501035
1011, -0.6335199458385432
1012, -5.848414946084176
1013, -3.1603287143157104
1014, 8.086416963446027
1015, 22.81985861123303
1016, 35.212966991603935
1017, 32.57544730511427
1018, 22.0065297433639
1019, 17.647521427476477
1020, 14.484741534520708
1021, 7.801713290825774
1022, 2.673592157917483
1023, 0.6635606570171149
1024, 1.3660519550694517
1025, 5.102883345588452
1026, 13.735362821782928
1027, 22.525550838870004
1028, 20.047508396826743
1029, 11.373607594237455
1030, 4.352867123073793
1031, 4.003474889188055
1032, 12.576190650095214
1033, 14.156817161594518
1034, 4.587195580994376
1035, -4.664862919591087
1036, -11.306050838613373
1037, -12.184307449758762
1038, -8.826666165835832
1039, -4.119673994038294
1040, -2.760482948284789
1041, -8.795013108891453
1042, -8.426342177009246
1043, 3.8592319711710843
1044, 17.842065874905984
1045, 28.346649030243952
1046, 26.8420648775068
1047, 15.480821937757355
1048, 1.0510613509418363
1049, -10.043192028517296
1050, -12.400410770410417
1051, -12.260745498173947
1052, -12.585589165449619
1053, -10.712524392852629
1054, -7.092179123204005
1055, -7.879156809932738
1056, -10.695401964620032
1057, -8.020191798795167
1058, -7.433493156200257
1059, -18.13991797984363
1060, -22.183224961860105
1061, -10.744999262401961
1062, 0.6640089801380782
1063, 8.09536392584505
1064, 10.442093957213274
1065, 7.342109565339797
1066, -2.3499482304846424
1067, -2.3669970261953495
1068, 26.5571629361948
1069, 69.6213949009707
1070, 120.65659635782185
1071, 162.28410026506253
1072, 194.1948326890124
1073, 226.9244307222075
1074, 262.95539467869
1075, 304.94854731537544
1076, 343.31030043232795
1077, 368.5504866292272
1078, 382.76998706461336
1079, 387.08324994425175
1080, 382.6590670105279
1081, 364.76729842418763
1082, 315.491142156533
1083, 245.94054135087072
1084, 178.06947024426654
1085, 115.35969614327132
1086, 72.29176618888732
1087, 54.04077167921423
1088, 56.05443968897589
1089, 35.810340391189584
1090, 0.8988430834401697
1091, -24.428772648043378
1092, -36.361715591170196
1093, -30.329349593756888
1094, -21.525839891050964
1095, -17.52640418325791
1096, -13.880023816648645
1097, -10.951348750472789
1098, -15.748284916177454
1099, -20.296983865456696
1100, -7.672195153514167
1101, 2.518340385103329
1102, -4.961025901033281
1103, -8.205211606899411
1104, -0.8347423389727737
1105, 7.478800634805339
1106, 13.620038212928648
1107, 13.715895760273725
1108, 15.360393171897158
1109, 27.04566476584614
1110, 27.893089028840222
1111, 10.440079039494776
1112, -0.5091790573724211
1113, -3.8127824330845215
1114, -14.577010030622205
1115, -21.07646751480388
1116, -3.0538547316359654
1117, 12.674879889995282
1118, 9.536381990902555
1119, 2.9392383730137226
1120, -2.230005426137268
1121, -5.422853626741471
1122, -5.9319429977431355
1123, -2.162780940856919
1124, 0.6028946242208804
1125, -1.3413969197545157
1126, -3.3016728883571886
1127, -3.3902080441152975
1128, 0.6672576494620444
1129, 5.928730563945919
1130, 4.700794627234245
1131, 2.437733503565596
1132, 3.733469163589689
1133, 14.641791966789242
1134, 34.46812456531734
1135, 40.65226478806244
1136, 36.34565547654029
1137, 35.581739866379394
1138, 35.35465847489013
1139, 33.128417688899845
1140, 41.68982633534324
1141, 59.96951490768879
1142, 55.447801792961855
1143, 32.78408369783983
1144, 13.693103399245956
1145, 0.5104228100663022
1146, -7.8302365447189
1147, -9.861773063271812
1148, -5.71513703305709
1149, 0.8896730551659857
1150, 8.353252644772056
1151, 13.860214106573494
1152, 17.570628868034873
1153, 20.21820264857979
1154, 18.57853656846055
1155, 13.47586310341967
1156, 14.097521272937684
1157, 17.2835994521497
1158, 14.653281372386573
1159, 7.420082138687121
1160, -1.7933087943147257
1161, -3.608570625635366
1162, 2.928960211245794
1163, 10.65256010276471
1164, 15.514605356042921
1165, 12.740449021742279
1166, 1.4355015971195826
1167, -16.543907386973387
1168, -22.501079880613133
1169, -14.043583423615928
1170, 3.212023442204554
1171, 26.10614351365939
1172, 48.27414083001577
1173, 56.58108230958351
1174, 47.77197800807744
1175, 41.761502985924835
1176, 36.71752552499083
1177, 19.06967946597024
1178, 7.431003281370522
1179, 15.831721255269258
1180, 30.658441433314238
1181, 44.34430863904845
1182, 52.85277161088834
1183, 48.824594574572075
1184, 20.439090389220382
1185, -2.460189417694437
1186, -3.0396327919120267
1187, -1.2732762644845934
1188, -1.4332796383769164
1189, -2.1980767110840134
1190, -0.11932876496030076
1191, 8.52817273474193
1192, 11.0829229730939
1193, 3.350517048175334
1194, -7.701174558730145
1195, -18.115451083715243
1196, -20.642074938824635
1197, -5.880401713048286
1198, 30.038299424083107
1199, 42.01221383830216
1200, 28.4505179957755
1201, 24.579670404110857
1202, 32.04468660107659
1203, 43.70545489305732
1204, 53.206398593746144
1205, 56.85436406184226
1206, 49.36106267096875
1207, 37.831748057996265
1208, 37.494271913740704
1209, 36.58818888764745
1210, 27.860812339751647
1211, 18.82010406446807
1212, 13.52866328054779
1213, 12.54023561845679
1214, 18.37202474027663
1215, 31.318557679647256
1216, 32.873973692239815
1217, 20.036510404279397
1218, 8.708582124379973
1219, 2.4352176567822426
1220, 1.6437793672876069
1221, -2.5966103269888663
1222, -12.650527607426966
1223, -12.669518363168663
1224, -5.922621761465962
1225, -5.296713872284272
1226, -0.2997044761877987
1227, 14.452192600459057
1228, 10.433052613043856
1229, -7.409445942583261
1230, -4.134484640279879
1231, 2.5058025994730997
1232, -6.342116906158481
1233, -15.897474976315607
1234, -22.196408975021086
1235, -26.84031123307659
1236, -23.929052856849466
1237, -5.480275271522714
1238, 8.062506789598501
1239, 9.396416266894903
1240, 7.322415121349877
1241, 1.857553950962938
1242, -8.560721375711637
1243, -13.502917034669736
1244, -7.793110003522543
1245, 6.155854149771585
1246, 27.412334744820782
1247, 54.25752590461707
1248, 71.51094042763407
1249, 72.34130061653559
1250, 65.45057895727177
1251, 58.324856764033484
1252, 70.34332297467472
1253, 98.82003085176348
1254, 132.35632173834756
1255, 161.67780210323735
1256, 178.26339682509342
1257, 165.09662848842254
1258, 146.61289806602963
1259, 143.8173407528575
1260, 147.6076535477805
1261, 154.41511908533903
1262, 161.08840349624916
1263, 161.4347052635012
1264, 151.27103291890853
1265, 148.96695325366363
1266, 155.11780127024258
1267, 153.9099430454412
1268, 145.3488171457302
1269, 131.30757246908615
1270, 120.59672454820611
1271, 114.38904852791757
1272, 107.41962529222155
1273, 94.24278600416483
1274, 70.38377241903527
1275, 45.42559867288537
1276, 27.598066907895827
1277, 17.312255080584237
1278, 11.703652548117134
1279, 8.927442897292622
1280, 18.646291044258305
1281, 38.11121020916789
1282, 43.65281678786005
1283, 41.08059518542359
1284, 36.72093665127704
1285, 20.131021679367677
1286, -2.921111688999872
1287, -6.250319661176036
1288, -1.512932489872128
1289, 0.8472510112924283
1290, 8.20797711104592
1291, 18.39199017636156
1292, 17.49142994077488
1293, 13.321356950720883
1294, 12.16012639401606
1295, 10.179557842850045
1296, 4.43167097281821
1297, -9.384467693592114
1298, -16.52138412786735
1299, -8.943262040744457
1300, -2.3883289031984987
1301, 3.532502074408285
1302, 15.318763810045311
1303, 20.98862257869564
1304, 15.589042095577042
1305, 9.041116487533372
1306, 1.2082652041865458
1307, -10.410831300200243
1308, -19.214057193196368
1309, -19.34588808253602
1310, 3.559166977660425
1311, 26.028137317780875
1312, 13.627083106169039
1313, 2.394716138726608
1314, -0.29083155764851654
1315, -15.574520833021097
1316, -18.88990258596141
1317, 11.639300060580354
1318, 21.267823472549708
1319, 7.366430291069946
1320, 4.006848147047549
1321, 1.776840905331028
1322, -6.135075120786041
1323, -8.399904602463948
1324, -3.7816055730404514
1325, 6.261206728130446
1326, 19.264372483248735
1327, 30.392937710742444
1328, 27.58708969988743
1329, 15.992883164180512
1330, 5.1110602449050475
1331, 1.6621704663755281
1332, 5.609952966916126
1333, 11.064039752046938
1334, 7.100483453963989
1335, -11.571507541663323
1336, -15.077452452607531
1337, -3.2298771503440094
1338, 9.707318251733795
1339, 18.29608675653708
1340, 19.60181051732843
1341, 13.820298972222872
1342, 6.747268134246951
1343, 6.745606870310212
1344, 2.7557848976071
1345, -6.361102467816636
1346, -13.457573619989944
1347, -12.946500049090218
1348, -1.6078835548614734
1349, 7.642169367145243
1350, 14.188756711206452
1351, 20.670733374368865
1352, 29.922325347346032
1353, 41.27672375418024
1354, 45.254801527845075
1355, 39.66018060852002
1356, 23.9238350671194
1357, 6.120478896580607
1358, -5.788933354145229
1359, -0.2044168812724365
1360, 5.222943101611008
1361, 1.979336682644771
1362, 8.841455773644611
1363, 15.968287994889579
1364, 5.951797518933972
1365, 6.442942275187988
1366, 17.480729556636334
1367, 7.635110239945789
1368, 4.848209452283754
1369, 25.62116009408851
1370, 30.39499160240939
1371, 19.127877288300624
1372, 4.521398285557552
1373, -6.890533084126673
1374, -8.001576013434942
1375, 21.00028316574094
1376, 50.703509951825026
1377, 55.35862566222522
1378, 36.6846115623498
1379, 9.237959993769891
1380, -1.9242134779783555
1381, -4.194353161931986
1382, -1.8909310345343329
1383, 0.5412256672157127
1384, 2.9468413920972125
1385, 5.10028228537044
1386, 3.587767703628515
1387, -2.0339952051695036
1388, -11.673531675950244
1389, -8.361125624450779
1390, 10.359734629294962
1391, 32.3570599328591
1392, 38.52537882699153
1393, 21.240306301689998
1394, 6.254388415543417
1395, 3.8416091561048233
1396, 19.96962300026621
1397, 37.056136910880696
1398, 43.40332258334729
1399, 23.579253388942334
1400, 0.11945606519134344
1401, -12.851235420206876
1402, -12.615013063476908
1403, -7.253316749003488
1404, -4.722786249811861
1405, 1.0822987573990304
1406, 9.803892087998292
1407, 17.805096582033457
1408, 24.473305971376476
1409, 29.04491801789527
1410, 28.347424366243786
1411, 31.183570550574814
1412, 41.907829522519705
1413, 46.80991995110321
1414, 41.56860847535859
1415, 24.837141869540574
1416, 13.021698044141203
1417, 8.942673901442276
1418, 4.904887078598904
1419, -0.8830976662709418
1420, -7.178129409576059
1421, -5.89236980635178
1422, 1.3296679636982844
1423, 11.361854991084556
1424, 12.85014373398917
1425, 9.25316404796672
1426, 7.7046039788212966
1427, 5.066113967729734
1428, 5.70516990743522
1429, 19.2258568084344
1430, 18.18662476595773
1431, 0.9188904832144544
1432, 4.685822282715208
1433, 10.473061699047093
1434, 6.651276834038299
1435, 21.874645218747446
1436, 32.49216211037128
1437, 11.464585054856116
1438, 2.816935304237859
1439, 3.364437797135679
1440, -10.823536439314694
1441, -11.326807908752698
1442, 0.6357757824230248
1443, -6.522033642928363
1444, -5.790622754448577
1445, 9.545797523004921
1446, 1.9427919090694559
1447, 0.509650666016114
1448, 24.828324179380388
1449, 32.140844503378275
1450, 25.218252702376276
1451, 16.20776638749453
1452, 4.351339823686885
1453, -2.853972161979982
1454, 5.500775591694037
1455, 9.024692453810758
1456, 1.3603910349061152
1457, -12.252089648972742
1458, -11.420560064187612
1459, 8.46104099933791
1460, 28.27190564607031
1461, 33.90395580417953
1462, 20.765577176449597
1463, 4.2477498875464335
1464, -2.6157546894737607
1465, 6.494161903941858
1466, 12.166000085000178
1467, 9.681850276407431
1468, -0.14493204286441141
1469, -5.845202442323853
1470, -3.6066965986326522
1471, 8.054825404325584
1472, 10.106814880045931
1473, 1.0805247913885978
1474, -7.027776358941082
1475, -1.5030126676660984
1476, 18.9633974598014
1477, 42.147367076916
1478, 57.790027592149954
1479, 61.34376669515268
1480, 51.17631566529485
1481, 38.198654963727904
1482, 29.867151714235888
1483, 25.38642316800633
1484, 24.334999316986796
1485, 24.148515185544966
1486, 11.496533169314489
1487, 0.5512318787921231
1488, 5.367844180770362
1489, 16.3682256895529
1490, 26.620182349252673
1491, 28.79530410909865
1492, 8.856168870514239
1493, -12.431772600510612
1494, -2.8685278414418462
1495, 5.478350289274886
1496, 4.036647424607509
1497, -4.747711199221612
1498, -14.574570970435161
1499, -16.61534357239657
1500, 3.396687898598657
1501, 18.31891298919527
1502, 18.823133406823445
1503, 11.560812085891712
1504, 11.473969148113838
1505, 21.20553827353183
1506, 25.899845962686868
1507, 17.373529132214117
1508, 1.9870845390883005
1509, 9.9032113240321
1510, 26.916763709619772
1511, 39.15547881310522
1512, 34.254562539555764
1513, 19.007028857777414
1514, 3.1879254519274127
1515, 5.768373951486183
1516, 10.316038409062685
1517, 3.737934563059298
1518, -17.438313804289237
1519, -18.394589326363757
1520, 13.343334687956485
1521, 31.83781571994018
1522, 33.35062173928941
1523, 19.356111863645538
1524, -7.366077028929794
1525, -14.912583223029515
1526, 8.163860677031153
1527, 19.82739837610984
1528, 25.132036808735847
1529, 30.342993524533085
1530, 29.31499772136226
1531, 22.889038589660686
1532, 12.592261985560754
1533, 0.3580574110392263
1534, -2.5938668776339
1535, 6.428121944618397
1536, 9.178644147727937
1537, 6.624086402648345
1538, 4.071864704405698
1539, 9.750462523676106
1540, 19.467873933628653
1541, 26.31212772203321
1542, 15.746240792242133
1543, -4.89609080694413
1544, -23.66152651160928
1545, -17.632922171801738
1546, 1.8576925111819946
1547, 25.0297204507101
1548, 39.348355035712984
1549, 36.22723963898602
1550, 18.813702045705668
1551, 8.070892396605359
1552, 1.4576422027587341
1553, -1.3954670332736896
1554, 5.490810531404804
1555, 12.034893050585424
1556, 13.29887920036731
1557, 10.097308441446785
1558, 4.105920573073263
1559, -4.673439988157725
1560, -17.858980540412176
1561, -17.378586832164956
1562, -8.704697816497855
1563, -10.482756750471253
1564, -4.898635096738417
1565, -0.2783171648432017
1566, -13.472927892457392
1567, -11.476187171401534
1568, -4.814178209653619
1569, -11.651601511608078
1570, 1.135561875393023
1571, 20.680757076230748
1572, 32.73033970300048
1573, 65.57769950564307
1574, 115.29159570232764
1575, 165.46125382717605
1576, 213.43716174894257
1577, 246.2512196013297
1578, 263.26893179403146
1579, 290.4219594533206
1580, 314.03418231775163
1581, 322.94973820089194
1582, 309.47279414496575
1583, 281.488880087903
1584, 249.7671867952174
1585, 228.8256521532462
1586, 202.47775102281844
1587, 166.99639140564818
1588, 125.36019160167098
1589, 82.17700908359552
1590, 48.10362603068211
1591, 20.96089122913122
1592, -4.66272891244671
1593, -20.639044810313862
1594, -21.7681925832419
1595, -21.557549589726477
1596, -13.672763627043423
1597, -0.5123001513800318
1598, -6.393867009225232
1599, -3.9761121409987936
1600, 6.314267227998698
1601, -6.227405257214286
1602, -1.611046324927429
1603, 16.908272496794325
1604, 20.712627175637635
1605, 15.476005180611992
1606, 4.6565774148343735
1607, -6.402308239137255
1608, -4.580030266566837
1609, 7.026657325100587
1610, 16.554845935180538
1611, -5.391671015737529
1612, -19.867252952040417
1613, -15.042932362558759
1614, -11.30088199123611
1615, 5.890013770700534
1616, 22.21450806919347
1617, 6.624176678076537
1618, 10.295986022079887
1619, 22.303363411112514
1620, 20.338419049454615
1621, 25.138206150952556
1622, 21.676561679872975
1623, 8.792650339668626
1624, 22.54475516023558
1625, 30.47444723886997
1626, 19.845508588609164
1627, -1.3333744663036668
1628, 1.1955191977556296
1629, 19.192729635085925
1630, 29.695901636522876
1631, 36.81918466476509
1632, 30.741531330014595
1633, 12.950752402444323
1634, 17.90363588622745
1635, 13.480128209359009
1636, -3.5553888438082595
1637, -6.2176610253918625
1638, 5.304929515541744
1639, 17.807157910638352
1640, 14.930499779126194
1641, 10.813775648409774
1642, -1.1590949665758217
1643, -17.152107513858482
1644, -5.831119872058935
1645, 3.0856449254274594
1646, 8.463866489116072
1647, 28.417384299761125
1648, 18.820146067881296
1649, -0.8815593437220741
1650, -4.181212706519318
##END=



