##NAMES=
##LOCALITY=
##RRUFFID=
##CHEMISTRY=
320, 4.805028331735684
321, 14.668459494067065
322, 19.89185375687657
323, 16.35451159477998
324, 7.530424455969751
325, -0.4819554582231831
326, -6.2236432112890725
327, -4.900951608063679
328, 3.7450034800226604
329, 16.6370167012783
330, 32.31671895266436
331, 46.52845210495707
332, 56.93702142051416
333, 64.6518852131685
334, 71.07709445718001
335, 74.37789827951156
336, 69.48539227244146
337, 56.493645181253214
338, 37.80019059348251
339, 14.67145006580813
340, 3.370940918733595
341, 10.411906309586811
342, 23.995744440940143
343, 32.79228925889129
344, 36.607863397448455
345, 35.083859238916375
346, 29.645731774774504
347, 25.90139574700379
348, 24.900512766886095
349, 31.160148501116964
350, 45.464947624142496
351, 55.127680569601125
352, 53.61125006593238
353, 43.99522396553448
354, 29.766297825707625
355, 16.74252366637984
356, 20.547804549856664
357, 36.456157087161046
358, 45.9797812970246
359, 46.77865115858549
360, 41.80935291087053
361, 32.059541774471654
362, 23.75498509927729
363, 20.807264523217782
364, 21.58559951683219
365, 23.857471672449265
366, 26.387677650373007
367, 25.763220852784798
368, 21.21894218959187
369, 9.451817658006348
370, -8.784917111782306
371, -14.199118899297446
372, -0.6003074346022004
373, 11.378291687950878
374, 6.623015228218264
375, -2.012839994819842
376, 4.169878032970701
377, 18.969482396121293
378, 23.15239381547144
379, 17.516650725990985
380, 14.385970861536407
381, 15.270669901011388
382, 11.36838367524797
383, -0.2516588077951383
384, -8.290411503671294
385, -5.890463656687643
386, 0.10062744119068157
387, 0.26831097277226945
388, -3.0796495442991727
389, -3.7629600267259775
390, -1.5882298322489987
391, 3.0303717229239737
392, 10.305065020190796
393, 22.21363099380096
394, 39.113620329975674
395, 44.65417653393615
396, 29.08346777381894
397, 6.647476715649191
398, -5.417814937492494
399, -7.699741202554378
400, -0.6160934268323217
401, 13.928255595114933
402, 24.286222661905867
403, 28.991231356899334
404, 27.519144909961597
405, 19.921197769400806
406, 11.878992310677404
407, 6.085603328804609
408, 5.69769654526408
409, 12.995717597375915
410, 19.59244532097955
411, 11.541221756361665
412, -1.3187595374492957
413, 9.334674882803029
414, 42.9543816175601
415, 73.11320702730745
416, 95.25236367352318
417, 109.24164527649828
418, 115.11616891811218
419, 118.80453326026009
420, 123.99287522943632
421, 133.63634616219224
422, 151.2876266741323
423, 172.44794604930803
424, 187.10751022402656
425, 192.91120629722218
426, 181.8325016770027
427, 156.50830300856978
428, 144.5960061158621
429, 150.73143040347622
430, 148.41315306490515
431, 127.40700953346459
432, 107.21782085726454
433, 101.55106715211286
434, 98.28713447551718
435, 81.31888042822402
436, 60.337782246552706
437, 58.546094701015136
438, 68.65564842861431
439, 55.746120412095934
440, 20.362948978453005
441, 0.6539434454662114
442, 1.8441865002996565
443, 10.010731123622918
444, 20.523209433833927
445, 32.787196761520136
446, 47.08265169054266
447, 56.59726153710017
448, 52.83465099396608
449, 42.4006156851251
450, 39.78037888040171
451, 43.45824896897375
452, 45.819026092311105
453, 45.22863143212362
454, 35.496571876227335
455, 16.571834567229416
456, 4.892273720602589
457, 6.299753069952658
458, 16.19171143880112
459, 31.27545312540633
460, 39.42690165293334
461, 28.715752614446956
462, 10.450465670615813
463, 4.144991872322862
464, 8.12990353492205
465, 14.981032859217521
466, 23.79394789280559
467, 32.29212483257379
468, 38.572058532485244
469, 28.05828791129079
470, -1.2901369026917564
471, -18.567502473490094
472, -13.261557296767478
473, -3.4076896413480426
474, -0.3330242938718584
475, -0.7641789892959423
476, -1.3427250083741455
477, -2.1634185435227664
478, -3.3867640611069874
479, -2.6465164309315696
480, 7.896544278118199
481, 27.178025933802473
482, 45.41821292852319
483, 60.640729141334305
484, 67.42144799283096
485, 64.78720826696008
486, 60.09591736410903
487, 56.19784003320956
488, 47.47204425047312
489, 30.344883217536335
490, 13.191542768146519
491, 4.887490502101173
492, 4.14106604638755
493, 7.784106175004126
494, 14.683872111719666
495, 23.025054296455437
496, 29.9102049004141
497, 23.162540083485965
498, 4.928632521975032
499, 1.744600405714209
500, 16.733941820439668
501, 25.122684464018675
502, 19.32524944404804
503, 9.04981662987575
504, 0.027819641025871533
505, -5.605243657266328
506, -6.059248623163967
507, 4.304256859002635
508, 33.726257810518746
509, 68.90705400644902
510, 84.49255775050096
511, 85.96624899484823
512, 91.81402257552372
513, 103.02591514765936
514, 118.41251651764287
515, 137.09881553639752
516, 153.6167406970767
517, 166.52117943415942
518, 171.46794888891282
519, 167.52415409894684
520, 168.64384893114357
521, 181.35471596364414
522, 188.5666781982236
523, 178.00712158178385
524, 159.46628642880114
525, 143.92778805287753
526, 130.2865988699914
527, 116.64127962094608
528, 106.28465942347884
529, 107.60627913550388
530, 116.24238366200643
531, 114.40835222149053
532, 102.8538558495161
533, 95.29968437174875
534, 93.821832665295
535, 97.7696631340823
536, 106.15396848705495
537, 105.42670376700698
538, 91.01037622484728
539, 69.4452632389175
540, 44.10512966150918
541, 25.280969074877248
542, 23.116912252588918
543, 34.76342584192798
544, 54.98437697065947
545, 73.29625809545178
546, 72.66274236703657
547, 59.54863996501672
548, 49.496121062016755
549, 43.41811468253218
550, 42.24959108873827
551, 43.76091431007717
552, 37.077086452592084
553, 22.113981298251474
554, 8.07122309541137
555, -2.1545089029773408
556, -6.133038280439905
557, -3.529614913334626
558, 1.60558533654239
559, 8.00666685491251
560, 10.55794640640579
561, 6.647465569562428
562, 6.8463574347097165
563, 19.105334521572786
564, 31.888007497131184
565, 32.75303659454812
566, 25.70795287107603
567, 16.84842668615056
568, 6.843063832541247
569, -3.046259053918675
570, -10.385586613500891
571, -8.262928506749631
572, 1.4502220276722255
573, 9.86871299871973
574, 15.55568813484797
575, 16.850504240816917
576, 14.374668821577416
577, 14.728386140840485
578, 18.872017384495848
579, 22.10682769596906
580, 22.85893346533385
581, 16.55192268332621
582, 1.8927538463572091
583, -5.096703539328246
584, 2.7463808644442906
585, 18.744960903224182
586, 37.64036048715843
587, 50.06713953613189
588, 47.62033351098535
589, 33.24965672307553
590, 10.559247848118503
591, -8.023999411910154
592, -3.184620815627568
593, 16.235420533232627
594, 30.241855706414754
595, 36.35585899926764
596, 29.59290188486011
597, 14.651798082375535
598, 9.164262905052055
599, 13.710641773368934
600, 18.700247317470257
601, 23.124507264242766
602, 27.43120526938219
603, 30.892857744955563
604, 26.901542388018697
605, 15.331130127354754
606, 11.633257353551016
607, 19.057482047187932
608, 17.875843919014642
609, 1.692405118340048
610, -9.083568144653782
611, -6.450026542494925
612, 4.524228786282947
613, 21.386141832686917
614, 34.682757376574955
615, 37.636871243665155
616, 31.361030500379456
617, 16.867748491701605
618, 0.7014939992832296
619, -9.456448278267999
620, -9.356566192544506
621, 8.689010835834779
622, 29.532756476389295
623, 24.05199030489939
624, 6.7474102857290745
625, 10.91921204826349
626, 27.984233279183172
627, 31.665831837665337
628, 26.087391160305287
629, 29.429591694390638
630, 37.830442106283954
631, 30.377505703734187
632, 11.117265507219145
633, 10.084664415290717
634, 26.546623200364138
635, 32.517636125757235
636, 24.816766208286026
637, 14.075552309340765
638, 3.210824242140916
639, -0.3360306239706006
640, 4.354477640668392
641, 12.275689649707601
642, 20.850328907290532
643, 21.47351092230747
644, 11.794156273124827
645, 4.742972528014889
646, 5.94111734586977
647, 13.293360969931655
648, 25.02376366827275
649, 34.62373371971262
650, 38.514574005480426
651, 36.95413160271664
652, 30.15239439836796
653, 26.76974202755764
654, 33.25811856773407
655, 38.9502402189255
656, 34.55728082033829
657, 22.806206371888948
658, 6.475558254346652
659, -3.4499611756996273
660, 4.277737887401599
661, 21.253983070195318
662, 34.50633371009235
663, 41.106960622727
664, 36.620057443520636
665, 27.193495378254738
666, 23.726741590485744
667, 26.878421857382364
668, 37.548083787587075
669, 49.368211694216825
670, 48.188288378431935
671, 34.75598774947639
672, 12.182018809952751
673, -11.219218175859169
674, -14.215137715101719
675, -1.4957395507890396
676, 11.087080638827956
677, 20.304200412306272
678, 18.787857593925764
679, 9.543949302778856
680, 5.789133089072493
681, 8.965315746586384
682, 17.033854851798424
683, 28.16033712174294
684, 34.935571782156785
685, 36.365554658292695
686, 31.88082165952528
687, 22.23068883587166
688, 11.731365841312254
689, 2.237233379684767
690, 0.9721435115466193
691, 7.526694547332227
692, 14.00748781805305
693, 19.480137695587928
694, 32.47904913841876
695, 51.99317532053419
696, 59.48697899311401
697, 52.224548989900086
698, 37.29993327734792
699, 18.39631508806997
700, 13.614582759370023
701, 26.121664124634208
702, 35.00242669361842
703, 36.96121357014772
704, 43.99823503520474
705, 56.829442354850016
706, 53.36053171103049
707, 31.360067158949732
708, 26.628876194158238
709, 45.574723073170844
710, 54.04546978283406
711, 44.32551328620184
712, 35.63561943675177
713, 33.10032842314513
714, 32.913597894989834
715, 33.71041240980912
716, 32.306936419267004
717, 27.88817572956077
718, 22.08352918440005
719, 15.59866774548027
720, 11.186300912807383
721, 11.113593352897624
722, 19.3633508947305
723, 35.21781019553555
724, 47.71121612929073
725, 53.294415895906695
726, 49.93218863721904
727, 37.70462497625567
728, 25.88990409801272
729, 16.697756857051445
730, 1.6963042148777276
731, -19.49512429726201
732, -23.307324744737343
733, -4.189012260523214
734, 17.072935731056532
735, 34.20367011485723
736, 48.19001801643253
737, 58.1630633881241
738, 50.74429104094497
739, 25.3670681049648
740, 18.06414580286264
741, 35.11832952456234
742, 37.27312074632482
743, 16.661105295890138
744, 0.13636702829535352
745, -6.132805727087543
746, -10.331764506366198
747, -12.769746401507746
748, 4.149018546049319
749, 40.77788554353356
750, 49.74476866226041
751, 26.254471646624552
752, 15.81980224454037
753, 25.00957551182546
754, 30.827163136338186
755, 29.758520811564267
756, 29.31018009857189
757, 29.382271808150563
758, 20.45650514796398
759, 4.347297230276581
760, 1.7450512996811085
761, 11.881057284339477
762, 14.277363487732146
763, 9.05811636367116
764, 12.612667983078154
765, 25.107512053134997
766, 41.92166700112239
767, 59.327709996056
768, 64.22248168315173
769, 57.07320151054637
770, 45.05704225430418
771, 30.236295997554407
772, 17.326929942512834
773, 8.329021184933481
774, 9.089804205169457
775, 16.12184474290143
776, 17.400648375527453
777, 16.70568077197322
778, 25.420900819155122
779, 39.292437731186055
780, 47.24073676834041
781, 48.581424768418856
782, 42.80940678554907
783, 30.54041557195751
784, 12.931690368201089
785, -2.554068874089353
786, -4.0833980812290065
787, 4.493148900368396
788, 18.505746289121817
789, 29.882871607176185
790, 29.15082760135283
791, 19.989914305687762
792, 6.414760362344168
793, 2.6320598981315015
794, 20.759233349778242
795, 43.11343512044414
796, 55.8696115950861
797, 58.684951477469895
798, 51.40882132691695
799, 38.99290152010008
800, 24.613039672977266
801, 18.25862206239708
802, 24.369691436942503
803, 28.209948020321463
804, 23.673850115529603
805, 15.443309155059069
806, 5.874499716462196
807, 3.9777319444779096
808, 10.850008102551328
809, 12.020633620826175
810, 5.350866975149984
811, 4.393564077663996
812, 10.833094499559593
813, 16.98284133359357
814, 22.900971858612593
815, 35.97794707138428
816, 51.56394119212473
817, 44.476641326126355
818, 19.27711060752972
819, 3.0914262252092612
820, -0.7976995119533967
821, 8.779695183261538
822, 26.454348818095696
823, 38.59922033382077
824, 42.01233526541478
825, 31.497676745838135
826, 13.69942023436488
827, -0.21054292641520078
828, -8.766258448974668
829, -11.0759047692884
830, -8.269314230096825
831, -1.011173499255392
832, 11.432212888323647
833, 29.0580936917288
834, 42.047889553359255
835, 43.966747598086386
836, 34.771072391044754
837, 15.305009638856063
838, 5.557386939941125
839, 13.430306351219087
840, 23.4136463478917
841, 29.76489869450006
842, 24.621035256953746
843, 8.337978554005531
844, -1.0767721897425417
845, -0.05309923253071247
846, 11.560001573585623
847, 29.842790895165308
848, 38.040997896693625
849, 35.82424384866431
850, 28.351099457253213
851, 19.026511020635553
852, 15.520574002321155
853, 15.98990878335826
854, 16.02355379822643
855, 13.237785191454577
856, 4.189616545320632
857, -3.366722376156531
858, -1.7528641973444792
859, 6.578916471712773
860, 19.479115077450388
861, 28.09137466351899
862, 27.037824941275176
863, 23.294866018913353
864, 20.28528176390614
865, 19.498001099162593
866, 21.024977371981777
867, 20.050989961393043
868, 15.821906536859842
869, 12.376128386957816
870, 10.58290651951188
871, 10.76024855153355
872, 12.690892092377908
873, 15.387093456594812
874, 15.471281315167289
875, 3.8240014167547542
876, -9.313009285567205
877, -3.9075868859863476
878, 10.171966959896736
879, 16.683525141419523
880, 20.610437908347194
881, 27.44082213034403
882, 28.679583176167625
883, 18.280183209280494
884, 12.636606981082423
885, 19.728816814664015
886, 21.168501177711732
887, 10.950381701655033
888, 3.052027783656513
889, 1.5157323695029845
890, 4.591224872560588
891, 12.36157598319437
892, 24.828425774427615
893, 36.80145686733931
894, 30.239432085945737
895, 11.435521761193513
896, -0.5816553667348217
897, -2.555264523476808
898, 9.551013425710607
899, 23.764622904732505
900, 25.421719249556872
901, 21.199508836281666
902, 16.540284368009225
903, 15.102287081468376
904, 18.376778248814617
905, 16.190063933780493
906, 5.961718789025781
907, 2.186682607974717
908, 8.41031639889843
909, 26.726461926741422
910, 51.63501944616132
911, 62.340879261061446
912, 57.62129378570694
913, 40.659243946795414
914, 24.065194854216543
915, 32.24425589980251
916, 50.476679844354976
917, 58.41306285180235
918, 48.734550117353365
919, 15.846346176278757
920, -9.704866208105841
921, -11.74376840326363
922, 7.23095602624403
923, 45.06528473367803
924, 69.65032811533547
925, 75.49244292806225
926, 77.08428163872372
927, 75.62271956361087
928, 66.75706713688578
929, 53.5141041014374
930, 44.424427544167884
931, 37.58791893297371
932, 29.24727125675122
933, 26.6378390624202
934, 37.1585527498155
935, 44.34469362846903
936, 37.69412656403597
937, 23.13824043718546
938, 4.683841550283432
939, -0.8578575926101166
940, 8.089116028978424
941, 17.77267108592264
942, 24.056717177785004
943, 23.849093235639657
944, 17.77852962589077
945, 8.120707057857317
946, 2.543802667605405
947, 13.104279573712347
948, 23.582762776358095
949, 18.86214549887609
950, 11.617773187287867
951, 9.370099621041618
952, 13.937637558983397
953, 25.64929062111264
954, 41.52034008404871
955, 55.78775536392095
956, 43.41931930426972
957, 12.344545176272959
958, -3.2463103496750136
959, -3.482830652822713
960, 7.586715034557301
961, 20.145497923012726
962, 22.70317364833909
963, 17.706235997917474
964, 7.136587710227559
965, -1.601545879466812
966, -5.047364650083637
967, 1.9974560435380226
968, 17.839340529060337
969, 22.440498040104103
970, 19.32270396128729
971, 28.27008659875446
972, 40.55503065019411
973, 37.096833974277615
974, 29.56444166270512
975, 31.190784771911694
976, 27.563584241889885
977, 10.861509987855698
978, 5.834864385706624
979, 19.485862744005544
980, 26.528433002793463
981, 24.779140788257337
982, 29.29294427866762
983, 35.62575989473794
984, 27.252085545886302
985, 10.301149374117358
986, -4.338488421107741
987, -10.212632092165904
988, -2.295100754857458
989, 12.22562124593378
990, 29.27066619814923
991, 44.71642170263385
992, 56.17082042715697
993, 56.70955819762912
994, 49.54903404044262
995, 48.6235707514586
996, 49.76743774203214
997, 43.26451700825328
998, 34.30067575788712
999, 28.524644960264368
1000, 29.598459649234428
1001, 38.94889645024614
1002, 47.497553099423385
1003, 51.824871443147686
1004, 48.82268370779957
1005, 40.690847148856164
1006, 36.87563448173114
1007, 35.577947444347046
1008, 31.77774155060115
1009, 32.580742950372496
1010, 45.17353383936029
1011, 47.25743986449834
1012, 28.514626679002276
1013, 18.915312914894002
1014, 26.769067277065005
1015, 32.14988480103375
1016, 34.22167661735784
1017, 39.922080644460266
1018, 43.807442353337365
1019, 35.4038843109513
1020, 26.683430240048438
1021, 28.515597759346974
1022, 30.87788039737461
1023, 28.57997283337204
1024, 18.49837711226951
1025, 2.6875931131266952
1026, -4.55559086854214
1027, -4.078436640739028
1028, -0.955334798455624
1029, 5.291117397763401
1030, 15.255104180065473
1031, 18.002290214959203
1032, 7.139514459204747
1033, 4.333835331149203
1034, 14.92829923474028
1035, 16.85655822534045
1036, 10.345246653429285
1037, 10.538772872614118
1038, 15.364339219408976
1039, 18.6918243559071
1040, 24.054783014502163
1041, 34.388461864568626
1042, 37.28168838873603
1043, 28.66627822498026
1044, 24.412481698283727
1045, 25.615841464050618
1046, 20.615032024996253
1047, 10.072490000078005
1048, -1.7065843037075865
1049, -10.455981991495037
1050, -12.20583462445461
1051, -0.38092205631460274
1052, 26.55055626181752
1053, 32.654706163280935
1054, 14.378413019914888
1055, 1.649679031935193
1056, -3.714490656537464
1057, -7.453777002453307
1058, -9.354605469853823
1059, -8.712435372329992
1060, -8.479785313013508
1061, -9.560459503057928
1062, -3.3240823305532103
1063, 12.909640161326251
1064, 38.76314050839096
1065, 61.91324248985643
1066, 57.168474498404294
1067, 51.976810947346166
1068, 83.17454122021354
1069, 109.8766824216168
1070, 116.58353657547877
1071, 140.07094220041563
1072, 183.0900377822893
1073, 215.58742551577143
1074, 247.20404067514596
1075, 305.60200366483946
1076, 355.42685775120776
1077, 361.6435078318218
1078, 346.76144926712686
1079, 321.7737417474568
1080, 291.40376775709206
1081, 258.51747860359296
1082, 229.6434507821623
1083, 204.34183471202755
1084, 180.840639638707
1085, 158.25004552886412
1086, 135.91838865131467
1087, 114.07762576520872
1088, 91.37667951048911
1089, 59.20220478235137
1090, 23.348769630754987
1091, 5.851083786677464
1092, 0.44083412831878377
1093, -0.6123401715619821
1094, 0.5619917424671712
1095, 2.3645198612355216
1096, -1.1412393888983843
1097, -8.354943081184956
1098, -5.515927381885604
1099, 4.076309935484915
1100, 11.26998090987422
1101, 11.425819953286464
1102, 1.9768429579191888
1103, 2.4843837011810592
1104, 16.292439548775974
1105, 19.840299350155647
1106, 13.51269653818963
1107, 8.269004094042657
1108, 2.7615525834241907
1109, -4.641902830897834
1110, -3.219325357505568
1111, 11.08821750201514
1112, 23.47787464866451
1113, 29.52482486786471
1114, 25.72633974905966
1115, 24.382398414725685
1116, 44.171292517477696
1117, 51.35911715064435
1118, 27.46956290961134
1119, 6.266020631904439
1120, -4.6936764313318236
1121, -14.009504005137842
1122, -14.569184273234214
1123, 9.9043741664741
1124, 32.45446689338178
1125, 32.37609711007849
1126, 26.09709194039874
1127, 20.82112640747232
1128, 25.197947011484075
1129, 31.661782577890335
1130, 22.00732099258562
1131, 8.28940722823495
1132, 2.773190770089741
1133, 15.428487820262262
1134, 46.22235401259741
1135, 75.95845575136627
1136, 94.7671336467688
1137, 86.91602106911273
1138, 64.68296708781122
1139, 40.836633788348536
1140, 35.06729273220981
1141, 49.460814930461765
1142, 54.45435887192775
1143, 51.072402527202485
1144, 51.796185897396526
1145, 51.28209451474163
1146, 44.51788379228424
1147, 36.17095062687645
1148, 26.550731585979975
1149, 8.131496125984995
1150, -6.979972157115071
1151, 6.29259806211212
1152, 25.9878797447725
1153, 31.295642548185924
1154, 25.430277096562577
1155, 11.29750558862952
1156, -2.5257749664970106
1157, -8.873156663041527
1158, 3.679420929966227
1159, 19.475918708772042
1160, 25.952003087454614
1161, 29.229733455440282
1162, 30.662930622755994
1163, 28.341730174626946
1164, 24.985445800969956
1165, 25.300482684640656
1166, 26.397993999120672
1167, 26.718288504568363
1168, 28.47551408194363
1169, 27.641808204192102
1170, 9.404675857535267
1171, -8.189025305178347
1172, -1.8903170710084396
1173, 13.569849249983235
1174, 30.7024349124315
1175, 47.48511916936923
1176, 56.75770887552039
1177, 41.746156853924504
1178, 25.3257969130143
1179, 28.145381616545137
1180, 29.117428873143353
1181, 23.116808019707605
1182, 20.92997139567001
1183, 23.187706970354384
1184, 28.595163414254102
1185, 36.150459755511065
1186, 44.17348079366707
1187, 42.81223924158917
1188, 30.426568444859868
1189, 9.435267417693694
1190, -4.115663879267004
1191, 5.224392381173402
1192, 19.10189047880681
1193, 28.076711856668
1194, 28.31047675393711
1195, 23.853306078306105
1196, 24.129989059401396
1197, 27.882135947867027
1198, 33.58102011501455
1199, 36.69880136950087
1200, 38.04573392250927
1201, 44.326778089915706
1202, 50.668010123895556
1203, 50.51999140013186
1204, 45.30481346662714
1205, 36.207318061798105
1206, 26.305532341216804
1207, 21.718252004685155
1208, 33.205379803302094
1209, 37.1308933620071
1210, 20.14966296592729
1211, 5.520901259505308
1212, -1.6775040698914836
1213, -5.3614194318397494
1214, -0.010181541997781096
1215, 19.865906916644008
1216, 31.041236264253257
1217, 29.334691401641294
1218, 32.909074813571806
1219, 35.910490615455956
1220, 26.25404209333351
1221, 12.731770911428157
1222, 0.23471297548189796
1223, -9.320441525077513
1224, -11.543193893411171
1225, 4.121137055149575
1226, 19.671868420460896
1227, 21.34352817033482
1228, 11.916548404012019
1229, -1.8780741872242288
1230, -2.4799560132973966
1231, 4.419330731399896
1232, 11.665752327089649
1233, 9.453788659188376
1234, 0.10340452027776337
1235, 5.390078171519235
1236, 20.247675593436043
1237, 33.334741239080586
1238, 33.18856858877916
1239, 18.078770214517817
1240, 3.929137406200198
1241, 1.6420095552077782
1242, 24.483970761240926
1243, 49.664039894812504
1244, 64.08457968426092
1245, 62.05238498622566
1246, 49.2005739424726
1247, 39.200664199535595
1248, 37.49071848181757
1249, 44.707173391744846
1250, 40.37927388881894
1251, 30.191742798764153
1252, 41.326463179113716
1253, 53.87553139004399
1254, 55.61804282331855
1255, 59.18015217559173
1256, 63.82283111349125
1257, 58.95298164376436
1258, 59.6481065673554
1259, 77.26913083091404
1260, 88.38869053938697
1261, 88.88609930933808
1262, 85.94895375564829
1263, 76.95282635912736
1264, 60.714041341323764
1265, 59.20683743547306
1266, 71.20965376147956
1267, 71.57529041670136
1268, 68.20494678403611
1269, 69.9922654826114
1270, 63.86541020255254
1271, 51.87037794903017
1272, 54.41324713315703
1273, 59.538434036417584
1274, 54.0643575858669
1275, 49.16713492996746
1276, 47.32570670518339
1277, 45.04625504930459
1278, 42.20243635913266
1279, 39.165539439241456
1280, 38.76673594590579
1281, 41.19547995727021
1282, 44.25281518156248
1283, 40.750634171504544
1284, 25.705455699234562
1285, 20.626816943615495
1286, 28.188347564412652
1287, 29.29859240778137
1288, 35.0392521147794
1289, 53.60531718036896
1290, 57.458828836463
1291, 45.71406807446192
1292, 35.923514206212985
1293, 20.667476455420456
1294, -3.9122995445877677
1295, -13.957850000216467
1296, -9.752263608228304
1297, -2.763551303535678
1298, 2.611675920210928
1299, 3.9360209428218695
1300, 1.831506587935337
1301, -1.1617151459208799
1302, -0.908847630052378
1303, 2.975638783854947
1304, 9.891900358943758
1305, 13.04043992585025
1306, 13.914931118433287
1307, 16.996578411243718
1308, 29.293611061605134
1309, 47.90329414369444
1310, 45.09630177968256
1311, 28.580239499956406
1312, 13.213388641970823
1313, 3.3302961698759646
1314, 0.3353479901400078
1315, 2.27083914927789
1316, 3.4605835440388546
1317, -0.7580386906140575
1318, 2.5040919538771504
1319, 15.942819712027358
1320, 35.99960845451551
1321, 40.52836635981339
1322, 18.83625463464432
1323, 6.572493233183195
1324, 3.6857202663852604
1325, -3.350899251275223
1326, -5.348329288073501
1327, 0.9849317169268943
1328, 8.775469676437751
1329, 19.7921220862263
1330, 36.731164007507004
1331, 39.73072955774592
1332, 26.788495690244872
1333, 14.828801329724683
1334, 11.242484320153153
1335, 20.52584857933357
1336, 35.04111126857697
1337, 43.2162931543337
1338, 23.808550577645747
1339, 0.21446574928222617
1340, -12.18396559577377
1341, -6.412885975252948
1342, 6.519647130246085
1343, 10.200351287009426
1344, 16.130851645074017
1345, 24.767447575297183
1346, 22.647050812344787
1347, 27.6564430349124
1348, 51.44157550403088
1349, 55.526310904211414
1350, 49.43775076830025
1351, 69.19471866456183
1352, 70.31520640189137
1353, 38.41106200326385
1354, 14.156965935312883
1355, -0.308649614710248
1356, -7.4865625067045585
1357, 4.714918848509569
1358, 27.890182527933348
1359, 26.178834333876466
1360, 21.06566736053628
1361, 26.187433899883445
1362, 32.268487925002546
1363, 39.25892854552853
1364, 48.809321648317564
1365, 51.71293272798607
1366, 47.378723211866145
1367, 44.40648215918577
1368, 39.895185253724776
1369, 30.758921101933538
1370, 14.237201130249105
1371, -0.49440752160217016
1372, 2.2949239115023374
1373, 13.441290431100697
1374, 27.512349951157603
1375, 39.99449541371723
1376, 44.04200519597157
1377, 35.970493578422975
1378, 27.456852599527338
1379, 25.857793327624222
1380, 38.74053761028176
1381, 43.6910995060623
1382, 35.50247109019074
1383, 27.259171339345585
1384, 24.865256244646844
1385, 31.08753445283355
1386, 38.51564519516455
1387, 37.10758754264293
1388, 14.423580563026462
1389, -2.66722152019247
1390, -6.064909050176539
1391, -1.3445734308570536
1392, 6.974912810727574
1393, 16.03599505819375
1394, 22.535315853637258
1395, 30.289677145440237
1396, 43.68464505969837
1397, 42.935108081468115
1398, 27.11936672093725
1399, 9.944731500266016
1400, 7.219324784207629
1401, 22.631840742378472
1402, 36.66023037078571
1403, 48.354955652320314
1404, 57.9123372341146
1405, 53.577463116509534
1406, 42.115111494089206
1407, 41.45369934133123
1408, 38.76831999098181
1409, 32.4007941396319
1410, 35.55824378903185
1411, 41.50291078042483
1412, 44.00435496565501
1413, 40.14164116630491
1414, 35.98128445258271
1415, 40.03314018806532
1416, 50.399462241430456
1417, 58.786168011389464
1418, 48.23110140457311
1419, 29.273740696770574
1420, 11.149361850271134
1421, 9.206373470996823
1422, 17.10348052555969
1423, 26.241764923152687
1424, 25.923876474442295
1425, 22.09984864908597
1426, 24.66434904149105
1427, 24.380614481759267
1428, 14.81252549145529
1429, -11.031146255461977
1430, -20.40191164433577
1431, -4.535132638337814
1432, 17.6214421566101
1433, 34.43934109216627
1434, 38.06744124986005
1435, 26.47661243765333
1436, 21.076640625647087
1437, 43.17705463041989
1438, 55.36667544567183
1439, 51.04885624882559
1440, 35.40030208875589
1441, 19.036698263687185
1442, 8.117815337317893
1443, 9.265816706184523
1444, 7.925971479310647
1445, -0.24342823307540584
1446, -1.7928754486244998
1447, 1.8933468259602932
1448, 8.578657476199623
1449, 15.285619119100033
1450, 20.057320531150594
1451, 21.965542819657344
1452, 29.6656999877124
1453, 36.883928748343806
1454, 29.551355250069605
1455, 23.008572031602284
1456, 22.15396792898912
1457, 25.225906560978274
1458, 25.95325770704676
1459, 20.573354433550207
1460, 6.716120954409689
1461, -4.49285808917341
1462, -5.84114174597471
1463, 2.360128316939381
1464, 8.104350182616713
1465, 1.8193783669767072
1466, 2.4111176322028314
1467, 8.54467284123075
1468, 13.908447176283062
1469, 21.68836918525892
1470, 25.78987391416888
1471, 15.721146833359512
1472, 14.36188675824701
1473, 21.368056150571988
1474, 19.06957289106765
1475, 20.326065490535598
1476, 25.720018286831532
1477, 20.51652645137176
1478, 25.042578610872397
1479, 42.791052984954035
1480, 43.91723130641526
1481, 29.799142387932193
1482, 9.355290179326062
1483, 11.591982981558203
1484, 30.010578881292076
1485, 51.78687668005955
1486, 48.0673376538997
1487, 25.686400379616657
1488, -0.007172501067429948
1489, -8.231490024992468
1490, -1.170612995276997
1491, 12.365725405392254
1492, 12.61717350124502
1493, 2.4743516430473846
1494, -4.6891148441822
1495, -0.13836029104595582
1496, 14.302709502448465
1497, 29.55922987200529
1498, 48.71621522618216
1499, 60.74455979460413
1500, 41.363701456341346
1501, 27.37169656130345
1502, 28.103700229072274
1503, 30.80176845219478
1504, 35.97218857704763
1505, 39.71911993416086
1506, 30.24349386603717
1507, 14.917943928931095
1508, 2.2187372501043683
1509, 5.959723443682265
1510, 14.086164182620678
1511, 17.284771649238337
1512, 10.601691828441517
1513, 8.71735758933471
1514, 16.960396527686385
1515, 23.013644509092387
1516, 23.202597600216905
1517, 18.88707390655827
1518, 21.2943199009851
1519, 24.57632228414809
1520, 24.726021062674818
1521, 23.859601022722927
1522, 11.207796681061382
1523, -10.968147449258936
1524, -3.460340099713335
1525, 5.432183169636119
1526, -0.31827615474946924
1527, 9.310695783952951
1528, 23.981557303789145
1529, 33.19749857838565
1530, 33.859913014952326
1531, 26.630765300072312
1532, 13.174962884311185
1533, -2.3642724117663647
1534, -0.6084654343713964
1535, 20.57698018682288
1536, 14.677624182753448
1537, 13.026872811445514
1538, 30.715190857436482
1539, 30.32265408031526
1540, 26.812282117057293
1541, 25.309288408909083
1542, -0.03113294006959677
1543, -11.007376670503277
1544, 4.227201608271116
1545, 5.555123746164213
1546, 11.457637725570066
1547, 23.666191203956032
1548, 8.00496459677629
1549, -2.9338444152390366
1550, 1.4559379029147976
1551, 0.04884193764803513
1552, 6.787682574623545
1553, 20.50118967863932
1554, 19.0903365247691
1555, 14.177373164205164
1556, 12.83515244623436
1557, 17.87086183937015
1558, 9.216964339642118
1559, -8.13278126705552
1560, -9.932283020117438
1561, -8.731899571378108
1562, -7.117728313466955
1563, -2.63614048497368
1564, -0.20622716652098916
1565, -0.9461687531920688
1566, -3.776151629096944
1567, -0.7663576568658073
1568, 2.172126670748753
1569, -1.7408691062752268
1570, 9.211489788337872
1571, 23.547635141034107
1572, 30.264322171536605
1573, 56.43447780877182
1574, 89.90022695162111
1575, 117.53991427320216
1576, 129.09392886170372
1577, 143.0031501148742
1578, 174.683242793536
1579, 232.42220849520618
1580, 284.173561665458
1581, 309.5347229152346
1582, 300.3741065407421
1583, 286.66650577298606
1584, 277.1959513922312
1585, 264.04798910943794
1586, 242.84732682977108
1587, 219.62371262430838
1588, 204.84930310848915
1589, 185.16087167697037
1590, 149.92196452204655
1591, 98.02139858608984
1592, 79.19575186534712
1593, 68.35499407400675
1594, 41.4237835770067
1595, 23.214810520469996
1596, 4.059574776271802
1597, -15.22167916085516
1598, 1.2679243551626769
1599, 3.1945315174923508
1600, -10.913367360317693
1601, 10.056819845376936
1602, 24.36332600331434
1603, 23.505282765141715
1604, 17.688368522088354
1605, 1.7369781340855752
1606, -8.434757802172157
1607, 0.5840860512757899
1608, 1.2405787521221328
1609, 2.347294708750269
1610, 10.382167042393121
1611, 11.596131998574151
1612, 16.261205708176817
1613, 22.36025323444551
1614, 11.048544448474104
1615, 4.908224691385499
1616, 5.544613700457148
1617, 3.020362262943763
1618, 9.153075351625148
1619, 16.233543684272036
1620, 15.289918952019093
1621, 17.259211309463353
1622, 21.61487942658323
1623, 23.37765960090894
1624, 11.543663433164966
1625, 0.9115437807723765
1626, 1.006958783066466
1627, 15.038689108302378
1628, 19.209205712848075
1629, 22.202107828756652
1630, 39.93380781816245
1631, 47.75058177052938
1632, 52.5243984110208
1633, 56.6156403564047
1634, 39.14310987442832
1635, 28.08518725092165
1636, 31.434432173747837
1637, 35.55493786497982
1638, 33.094239564827035
1639, 25.512420810056142
1640, 19.143677699942828
1641, 25.036058272187233
1642, 29.143296535542163
1643, 19.291284918309884
1644, -5.1401788793488095
1645, -6.346756690876759
1646, 11.750138313086268
1647, 13.1316479522701
1648, 13.58784809121346
1649, 10.054540204166983
1650, -0.6195238858346102
##END=



