##NAMES=
##LOCALITY=
##RRUFFID=
##CHEMISTRY=
320, 5.607641968962525
321, -0.30519989711410744
322, -6.487662933942829
323, -9.340051477268844
324, -8.811062845909419
325, -4.255415915336016
326, 3.4481482770088405
327, 9.881061998195946
328, 14.254769355338794
329, 17.255460442789627
330, 19.10692596446188
331, 22.2274208071849
332, 27.943906844897356
333, 30.399282908425448
334, 22.181221287604785
335, 7.491449824472511
336, -1.2730560074364803
337, -4.019752071851599
338, 0.8139348641552715
339, 13.745790005716572
340, 30.681853709268125
341, 48.16680231561577
342, 55.29524666242651
343, 43.09400162451675
344, 21.75976252522969
345, 10.172446486324588
346, 7.722312566802884
347, 6.157720589382279
348, 5.307305369146434
349, 12.533085888440837
350, 29.927276764621183
351, 38.311987084785414
352, 28.451578824835906
353, 12.801038462039287
354, 5.461937417434456
355, 4.571240209328153
356, 4.228002551372811
357, 3.5732680115229414
358, -0.3437457678737701
359, -7.6522178854907
360, -10.488514361138186
361, -6.569391235451349
362, -1.100198644541706
363, 2.9493894154225018
364, 5.703614925643706
365, 6.483137163499578
366, 5.031311782573539
367, 1.1408219452309822
368, -3.65533949441442
369, 1.6882777146256558
370, 18.646599886907552
371, 32.381544811807544
372, 37.8447580925822
373, 33.346550722788834
374, 17.722310536631994
375, -1.9756020497629834
376, -15.574372423307523
377, -22.140479081659123
378, -15.87636575604256
379, 1.601699842029575
380, 15.944817287418118
381, 24.35985357182153
382, 27.970925256096507
383, 27.191944641445843
384, 24.936788323254405
385, 23.178421937955136
386, 21.275571902181127
387, 18.322301188657548
388, 15.04533309796716
389, 13.466757877149576
390, 13.009464690886489
391, 9.85042244827946
392, 3.720074075210505
393, -0.8568125153001347
394, -3.0609805445456004
395, -4.040616582642542
396, -4.44700526923225
397, -2.652545164141884
398, 3.540992029596964
399, 12.607566643355767
400, 19.161822234289502
401, 21.676327126634533
402, 14.236788047188384
403, -2.2513498834355232
404, -12.376610529056506
405, -13.460240468338725
406, -12.912712575187015
407, -14.135385319359102
408, -12.034347137273926
409, -1.6496654631996535
410, 13.220513606027453
411, 24.105273872649377
412, 30.16957485599187
413, 29.21475343380962
414, 22.160398418845944
415, 16.04448477224696
416, 13.66215731763441
417, 13.760938473216356
418, 16.142807203542816
419, 31.221323946489065
420, 66.82937695580858
421, 98.26185735215813
422, 99.57383895042585
423, 82.11192921044812
424, 71.20063136601584
425, 66.20865313077502
426, 60.85084911040758
427, 55.282339353113
428, 55.99834762871296
429, 63.54021331244803
430, 60.688921404569555
431, 40.823971941494165
432, 20.504249567649367
433, 13.417203385982702
434, 13.89797342134625
435, 15.407319844553967
436, 15.021759068855317
437, 9.17683244056525
438, 1.3587502195791785
439, 2.26177070355061
440, 11.567779747842906
441, 15.326094138050394
442, 10.927475077414783
443, 6.269609570237208
444, 4.390777897991029
445, 2.4986546231680222
446, -1.7877832827175553
447, -6.327647123980569
448, -8.370724127788435
449, -7.697157168917329
450, -3.3324352427603117
451, 3.93056416847503
452, 10.070540011849971
453, 14.341535994418791
454, 17.442497715156605
455, 19.05255207399796
456, 12.51963814943565
457, -3.987090588023875
458, -11.862399704070413
459, -1.232706675942154
460, 9.98512538587147
461, 3.2350290084850712
462, -8.139237793284792
463, -2.8089843756310984
464, 11.948905529032345
465, 12.71888253002271
466, 2.2488527845489443
467, 1.6205759562653839
468, 11.454124192332984
469, 12.178113225859306
470, 0.04600797902003251
471, -5.351427972089368
472, 3.182056820994603
473, 14.029714427599629
474, 18.59928116540823
475, 16.83026715771257
476, 8.65326331492497
477, -1.7328108193864864
478, -6.445824359508151
479, -7.335101308504363
480, -9.40192970020189
481, -11.671650884674818
482, -6.42369447792953
483, 6.579006905445567
484, 15.323933252116149
485, 16.35474764621722
486, 19.28841166607981
487, 27.812405732751813
488, 31.470536641089893
489, 23.61502049822775
490, 11.99169924628859
491, 6.008289287044136
492, 6.108299126550264
493, 14.105816571965079
494, 24.65725482555672
495, 24.710453060470172
496, 14.636692172306994
497, -0.6938431607418352
498, -18.52777360251548
499, -24.1827210462352
500, -15.835605603502245
501, -5.221300090819568
502, 4.678333296763412
503, 13.859421058609314
504, 21.34565305940896
505, 23.311683244389314
506, 16.78268338974476
507, 7.209930317510953
508, 2.2031341323872766
509, 0.8985521537865679
510, 2.406697782891115
511, 9.609315972767035
512, 31.485941355316754
513, 66.98785275042337
514, 95.35583813617222
515, 113.8916234164235
516, 118.95641528687429
517, 110.76705466098565
518, 102.51097388408289
519, 98.23936506065547
520, 93.89771555508469
521, 87.52939997637759
522, 75.01391121978395
523, 53.39225773687804
524, 28.567671612619506
525, 10.02191269883815
526, -1.5836494470504476
527, -3.127355530180921
528, 2.093856910191789
529, 6.492511281966472
530, 9.78400569273299
531, 10.087240685328652
532, 7.543050641094851
533, 4.357710387426323
534, 1.0862887235907692
535, 3.246503613638197
536, 12.167533675715276
537, 24.113509697263908
538, 36.13922927943031
539, 44.34373885999776
540, 46.7588510541168
541, 45.20536193691623
542, 41.02807150212266
543, 31.075215748425308
544, 11.853321714572303
545, -5.963423078894266
546, -8.733389448982962
547, -3.676595669321614
548, -6.882708768439443
549, -14.319641823156417
550, -10.208972181195804
551, 3.062142423534169
552, 7.483632769241012
553, 3.868584893622028
554, 11.86416044716816
555, 33.982872759731436
556, 45.22798200159605
557, 39.72377028959863
558, 31.560198356634373
559, 26.079925069855562
560, 18.166371862318556
561, 5.118209575245601
562, -2.4506724839429808
563, 2.2992121123866127
564, 10.827990229028273
565, 13.182614419177298
566, 12.770979431956675
567, 14.77621673226804
568, 16.424575501361687
569, 11.818237399113968
570, 3.4148954990591847
571, -0.9553052129263051
572, -2.4382340623596974
573, -5.681494409107017
574, -10.165721362955082
575, -9.440072460105057
576, -3.365498114264483
577, 1.4092265696476716
578, 3.9698141153394317
579, 5.503303671958747
580, 6.356564461923881
581, 5.989070193638781
582, 4.226561397501428
583, 2.1595708613149327
584, 0.5523936096683428
585, -0.609975610798756
586, -1.3471682827325822
587, -2.3957723947260092
588, -4.4555952854943826
589, -4.399399026746778
590, 1.8515091520744136
591, 8.96065511438428
592, 7.062987150806293
593, 1.9111480671090249
594, 6.1388215900660725
595, 16.80783438332446
596, 23.010472415156983
597, 25.058405641767422
598, 26.130523353760964
599, 25.22371893065747
600, 16.431711033596002
601, 1.7100309082711647
602, -2.3866186371883487
603, 4.943399120090817
604, 11.622571430433709
605, 14.5414262121094
606, 16.30896036367858
607, 17.16878671208542
608, 8.564111170757315
609, -11.708424200983245
610, -20.112301375245806
611, -6.727510898048877
612, 5.378017626864221
613, 3.049667094290271
614, -1.3040244880389764
615, 0.5559654814851456
616, 2.1826088374555184
617, -2.2980718281924055
618, -0.9813221943727513
619, 20.631453559013153
620, 45.32181527757757
621, 47.80546174115125
622, 38.835689698966235
623, 38.1813544882757
624, 40.77493235307884
625, 34.54888472358016
626, 21.143223764096092
627, 6.130097353986457
628, -6.986491791865319
629, -11.09023765790198
630, -5.843692321881463
631, 9.66395673407942
632, 32.89816789158567
633, 42.90808173576079
634, 37.826180875842965
635, 22.267330153382318
636, 0.1532067412381366
637, -5.198662426061219
638, 7.798287074577729
639, 16.439164573333983
640, 14.724366091893899
641, 10.176252139080134
642, 5.130442530443361
643, 2.438865158878798
644, 2.619587598643193
645, 5.343571784718733
646, 10.628149072660563
647, 14.40406707585089
648, 14.991471760434251
649, 11.82727455768645
650, 4.720727775719297
651, 4.2683225376308656
652, 16.830859654119195
653, 26.044940842556116
654, 20.031545279824968
655, 12.781525207215054
656, 16.477793983703123
657, 18.264500967468393
658, 5.042651526965074
659, -8.377060735775103
660, -6.388732215498749
661, 1.5640699094296906
662, 3.097044814302535
663, 3.380668372751188
664, 10.355556169491592
665, 17.14599576006549
666, 12.096843046761933
667, 1.7537724957414866
668, -0.3291339386710206
669, 3.67352553722003
670, 9.009329238757346
671, 13.724137782633989
672, 14.364907081780075
673, 10.63986149209677
674, 2.188286541884736
675, -7.507961020487073
676, -9.473665921920201
677, -5.562497035315118
678, -3.1910011098120776
679, -1.5434703307455493
680, 3.9733538408440836
681, 11.444524976898265
682, 10.879505708927809
683, 3.7102511684297497
684, 1.2555649389537393
685, 3.3106010655164937
686, 4.051786089207781
687, 3.243748022670843
688, 5.858300799196513
689, 10.917486713320159
690, 10.882493876137687
691, 5.662484340681203
692, 2.030855276238981
693, 1.0136026481000044
694, 0.26988904994550467
695, 0.2935573389331694
696, 8.12346958997341
697, 22.572149408811583
698, 24.019007566731034
699, 10.820641341116243
700, 3.408738163174803
701, 5.257188376506292
702, 4.146679563583348
703, -1.3275255524008571
704, 3.3618410482349645
705, 20.05351303226098
706, 25.312555869811604
707, 15.431607720950979
708, 13.478603572676093
709, 25.29042786772925
710, 31.462054165103382
711, 27.415700043598918
712, 17.61104582952794
713, 4.135101551682055
714, -2.8101897836431817
715, -1.5590175263055244
716, 2.0988768147717565
717, 6.469549750594524
718, 7.49417352609089
719, 4.017013724333083
720, -3.493622953278191
721, -14.55904510551727
722, -14.525318075940504
723, 0.22220162385656295
724, 14.811537093013158
725, 24.335143744592187
726, 31.104776215389847
727, 35.146487170732144
728, 27.4499084776744
729, 6.719741208578398
730, -7.206605603883418
731, -10.014529890277117
732, -4.009996128319926
733, 9.96285028636612
734, 22.994153102626115
735, 30.583436312004324
736, 27.547245492626644
737, 13.51396394057565
738, 1.6941969822487408
739, -3.7949546424565597
740, -1.5121386542728033
741, 8.087761264834626
742, 12.077302707533363
743, 7.669885739265737
744, 2.148930623644901
745, -2.1880912683195675
746, -3.8948413289163
747, -2.826651803252844
748, -0.23169109357741036
749, 3.490707842451684
750, 5.876907344190386
751, 6.247840870886193
752, 7.034957044162638
753, 8.534247655436047
754, 9.115075266565327
755, 8.679454967976653
756, 8.787766516759348
757, 9.07519390177822
758, 5.395443778956633
759, -1.5433704782240056
760, -3.5514217189338524
761, -0.9059631892373545
762, -0.990811815354391
763, -3.395113457206662
764, -0.6880958880065009
765, 6.879535530107205
766, 13.007390641358597
767, 16.693515854044563
768, 20.207775366281112
769, 23.611001466885227
770, 26.19600421886662
771, 27.86274721341715
772, 28.50180261537116
773, 28.656120104075853
774, 30.052316521197554
775, 29.531240585991327
776, 17.795069745103774
777, 1.326570688038828
778, -1.7316391556209965
779, 2.920113793924884
780, 1.288575512719035
781, -3.404330009480418
782, -3.4834544165764783
783, -1.4516573156529375
784, -2.131483217751793
785, -1.0203435466728479
786, 9.59896345406014
787, 23.70891292137094
788, 30.064675496984364
789, 30.222432978532197
790, 26.22658612808118
791, 18.625510101879172
792, 8.008234473747962
793, 3.0344347895265855
794, 10.452960751062164
795, 22.96214753986169
796, 33.12105700062921
797, 39.584387586544835
798, 41.346159397898646
799, 33.12589373873334
800, 12.255050027818015
801, -4.353583465529482
802, -10.489018106089588
803, -7.548467198270373
804, 3.5901813074997335
805, 9.10738038075624
806, 4.016179236550215
807, 0.6093779510683817
808, 1.7471144104592895
809, 2.038238162721882
810, 1.1426052498873105
811, 7.897258714005147
812, 22.450745427822767
813, 27.529587659430945
814, 22.822937244075547
815, 22.770182813532756
816, 27.122721795825782
817, 25.419545619768087
818, 18.07777775710929
819, 11.033918004299721
820, 7.259422088558495
821, 10.342150051875251
822, 17.889070672039452
823, 21.591470468992156
824, 21.04408207000006
825, 16.102030753852887
826, 7.837976787605385
827, -1.1931452210278621
828, -7.929818013742079
829, -7.820140073994935
830, -6.984036867778741
831, -11.785231358653164
832, -8.17017357030727
833, 15.94675904373662
834, 34.92507983183714
835, 31.867784524551098
836, 24.818106814829207
837, 22.72074977858074
838, 14.178389529892229
839, -4.102346773798217
840, -10.759636794449307
841, -1.4255947145611572
842, 2.2029103120871696
843, -2.7315997677983432
844, 3.51046870621758
845, 22.458875530482146
846, 35.81373750059993
847, 39.140519307220075
848, 25.368392765796216
849, 2.0927377424263796
850, -2.8289811775912312
851, 3.412581910312838
852, -1.2360895264610008
853, -8.26942417003147
854, 1.624318439887702
855, 15.263107867578128
856, 10.104383373475684
857, 2.248229545452432
858, 10.597917699636582
859, 18.102883449192632
860, 10.774282932238748
861, 8.024536522555081
862, 20.557063026270043
863, 28.172962755622848
864, 22.631625334277487
865, 21.76750569595697
866, 30.64493332246684
867, 34.261343370335
868, 30.22874848624633
869, 30.849856752491178
870, 34.28691216320294
871, 18.339762715098914
872, -10.188649426337179
873, -14.835812024932693
874, -2.668374656419928
875, -0.7766436497727227
876, -2.6583966224798132
877, 7.8818909755832465
878, 19.775191488296514
879, 15.228248860757503
880, 4.5344730800106845
881, -0.6114479294251396
882, -1.2343800605044635
883, 2.099149627184488
884, 4.384277954063691
885, 3.4092802401428344
886, 8.268473630491826
887, 20.67152922131436
888, 22.75958982503016
889, 11.59167397777037
890, 2.5115804990850847
891, -1.6969489465764127
892, -4.036892071287184
893, -3.586785206690365
894, 4.860650359395095
895, 15.360524342036115
896, 9.819408875840509
897, -2.5730735546076176
898, -4.8524485361635925
899, -1.281120430332976
900, 3.343730925699674
901, 15.590011252089425
902, 41.12869775973695
903, 56.863205590431335
904, 51.741335492653434
905, 41.67754906156961
906, 31.758060306679
907, 11.200560453866274
908, -16.62663553650964
909, -21.666950724038088
910, -5.7229963490162845
911, 2.5963677234417446
912, 3.8667250880962456
913, 7.201734153295547
914, 12.670091971403053
915, 19.19522436750458
916, 28.69487923962288
917, 45.42528236962153
918, 58.617042403306186
919, 59.01410265295863
920, 45.10518514706109
921, 17.210861912802102
922, -0.605979410323016
923, -2.9140719526485555
924, -2.6675327452826423
925, -2.187186108767037
926, 3.7568803779154223
927, 13.954125526336156
928, 18.0893931440487
929, 17.802859878142044
930, 19.511430586744154
931, 22.880390439376242
932, 26.872067493916802
933, 24.552233098600027
934, 8.915083728689751
935, -1.8529105276456903
936, 2.148369068582724
937, 13.82398019631728
938, 30.78705765657287
939, 47.570295838469065
940, 60.570371314266595
941, 54.448978766633445
942, 31.095403867240748
943, 7.789120246727634
944, -9.218743205261035
945, -12.39478074476665
946, -8.04128244910953
947, -5.7110778013939125
948, -2.600601891428596
949, 4.113757653723042
950, 12.341418149584115
951, 19.78506844289359
952, 21.612164456482333
953, 16.7261911827959
954, 11.133084571627023
955, 6.204110686813692
956, 2.480426147063099
957, 1.4747752970706642
958, 8.81604818140704
959, 20.00114464035869
960, 23.535261059446384
961, 25.561750817828397
962, 33.29709258544153
963, 37.29034846027753
964, 31.561546801989152
965, 24.24353505803856
966, 17.782288211874402
967, 3.48849666822116
968, -15.712619416965936
969, -16.87875742432834
970, -3.406032487489938
971, 4.776992513742243
972, 7.11642614752509
973, 3.4021220387689937
974, -2.9101813969782597
975, -8.892847236181751
976, -5.664584116338574
977, 12.193371667308838
978, 28.11164570600249
979, 34.676122778248555
980, 24.284802612362455
981, 1.3206954202128145
982, -6.680678750276456
983, -1.4070251151906632
984, 6.572012115424059
985, 16.609136363661946
986, 26.706346182511425
987, 29.82552245613033
988, 20.222705516822316
989, 9.457976050997786
990, 4.086133410864477
991, 2.1503748149771127
992, 3.528649480578224
993, 11.144929542043428
994, 21.78684010107554
995, 24.807443739328846
996, 20.702362461687244
997, 11.895457527938106
998, 0.9794597159734622
999, -9.112377570776971
1000, -8.096938870849044
1001, 9.064680890178352
1002, 23.635092481185893
1003, 28.306826284369436
1004, 24.4095629955209
1005, 14.002349182449962
1006, 3.346611838489025
1007, -1.9293001417690903
1008, 6.885543312954724
1009, 15.816326076581845
1010, 8.578388451164756
1011, 0.6490298820795033
1012, 0.5530879066695888
1013, 4.91201586167108
1014, 11.840951581561512
1015, 13.251955726098004
1016, 8.642008962885939
1017, 0.45345918995008105
1018, -4.543595390040991
1019, 4.6476576955678865
1020, 17.168403291017512
1021, 21.669657624866886
1022, 22.335389231497174
1023, 20.871437724207226
1024, 13.782677486929515
1025, 3.3219903919080025
1026, 5.293879505801669
1027, 14.019746804913666
1028, 8.485540737738575
1029, -0.5485985164950762
1030, 3.0947641461680178
1031, 10.13820305229774
1032, 13.621150164051414
1033, 15.707343904476602
1034, 16.95695865885682
1035, 15.69682995835501
1036, 11.986006156681015
1037, 7.13935390908091
1038, 6.163672042799135
1039, 16.59477945459912
1040, 19.681619667413543
1041, -0.4069216217685607
1042, -16.786117887388173
1043, -19.439727778214547
1044, -16.95786797839719
1045, -10.055570730255567
1046, 6.423464610552401
1047, 26.54226716277526
1048, 32.009186034676986
1049, 30.44609818369645
1050, 30.667707761987913
1051, 22.806030693789126
1052, 3.7350494026800334
1053, -2.4311003516318124
1054, 6.525199556129792
1055, 14.065826560131427
1056, 16.91010800045433
1057, 14.143485352070002
1058, 2.964473089783951
1059, -19.139947844939798
1060, -31.654629390332047
1061, -23.928111789703962
1062, -4.813910653441781
1063, 19.673656129723895
1064, 25.165811704127464
1065, 13.620004181379045
1066, -1.4656659275606216
1067, -12.531898155713861
1068, -10.63871078018974
1069, 17.25528303428564
1070, 76.69290280399127
1071, 131.15105404346787
1072, 164.39382909606184
1073, 187.76032944542203
1074, 209.38405423154973
1075, 243.64260402576247
1076, 277.37666297328997
1077, 296.94468718376083
1078, 296.91545804099997
1079, 277.03529347887934
1080, 255.91059018697206
1081, 237.14185654920402
1082, 218.83546557373302
1083, 194.96178867036633
1084, 155.45095379639815
1085, 110.6537375849598
1086, 69.0249312367564
1087, 42.82724599875519
1088, 28.868382469554945
1089, 10.569642192288484
1090, -9.630252265065792
1091, -15.246315267744649
1092, -16.05888686319986
1093, -24.929589649631907
1094, -29.824690358471344
1095, -24.604088922820665
1096, -15.155146713007525
1097, -1.7618251383960342
1098, 18.725395495404427
1099, 36.35086481791723
1100, 31.66256937751723
1101, 19.264909737696144
1102, 11.612764007504211
1103, 11.237720240113049
1104, 14.60011922985177
1105, 4.607969868708551
1106, -12.255350328213353
1107, -14.715082403833094
1108, -7.99344051953949
1109, 1.4151206477022242
1110, 14.622667498733335
1111, 29.554605299793366
1112, 29.354527023818264
1113, 15.949464122901645
1114, 8.64600965150612
1115, 6.547453996865897
1116, 4.413146165521994
1117, 5.505286134847665
1118, 11.769075306912782
1119, 18.177829789213774
1120, 22.04038300665661
1121, 17.380669097416558
1122, 6.0034427396089995
1123, -6.9196897135484505
1124, -13.693987208240287
1125, -8.77720864721141
1126, 0.7630638861992338
1127, 12.82829766594159
1128, 24.63161596506643
1129, 29.372895851427984
1130, 13.622130637029386
1131, -2.7026129656164812
1132, -3.028614377096801
1133, 2.062452052174649
1134, 10.03483453648414
1135, 25.967682385491116
1136, 42.081957878873254
1137, 41.80281781580379
1138, 35.5915714700177
1139, 33.45984111307189
1140, 33.82720980770455
1141, 35.34375241679754
1142, 33.8833742064171
1143, 28.87086785719066
1144, 20.4259586229291
1145, 8.391050476141572
1146, -5.805849004250831
1147, -10.28225575532906
1148, -3.2346779337194675
1149, 1.8317583327648208
1150, 4.082740035476945
1151, 5.317801169945142
1152, 5.486935224141689
1153, 4.9003399828479814
1154, 4.387275126898203
1155, 4.62889864962699
1156, 5.448635901251691
1157, 8.664300596364683
1158, 17.07191228089914
1159, 20.797703054737667
1160, 13.2114863392394
1161, 3.0670661526628464
1162, -5.865778552520624
1163, -11.047272288252088
1164, -7.816253112614731
1165, 11.75803760223721
1166, 34.01375248427394
1167, 47.47167393022437
1168, 45.41627821595216
1169, 29.71182088874434
1170, 11.703584611499082
1171, 0.12498187185838106
1172, 1.9220578562421906
1173, 2.5277565035837597
1174, -3.784058617826304
1175, -9.263771492088836
1176, -11.191935928974544
1177, -5.488241130866754
1178, 8.731214795449205
1179, 31.725685790021544
1180, 41.70419977278857
1181, 34.23330774319379
1182, 23.022055127008116
1183, 13.500575854920726
1184, 13.55255331969397
1185, 16.78545725162894
1186, 18.919574578794254
1187, 10.84046321103142
1188, -4.1601804168844865
1189, -9.191209600557158
1190, -6.6514635227740655
1191, -0.3297995514935792
1192, 2.5687750792005772
1193, 0.09112534941391459
1194, -1.9920205825860648
1195, 0.3120456073340847
1196, 13.817487051032913
1197, 25.790602719346452
1198, 26.976791501108664
1199, 17.103611592108564
1200, 1.6630870425897228
1201, -0.6991019139688888
1202, 5.800953880672296
1203, 14.663617293777179
1204, 13.414527754019673
1205, 1.5168391137865456
1206, 3.6952960384712696
1207, 17.061037366941264
1208, 28.034275524841632
1209, 33.80672876226913
1210, 32.20949778785257
1211, 18.4031226869904
1212, -0.8475238044015896
1213, -2.343248200216749
1214, 5.632646143618786
1215, 13.411961408900424
1216, 12.123466070209815
1217, 2.1426291513419073
1218, -1.6941406759742677
1219, -1.9420662391942187
1220, -4.42334905536859
1221, -2.2371435091640706
1222, 6.551983906462283
1223, 9.328428725807271
1224, 6.392107474719978
1225, 3.3642046576856046
1226, -0.19633828299379275
1227, -5.212119594448268
1228, -10.901982772781594
1229, -15.26336884903776
1230, -12.112089654477813
1231, -5.529015402850064
1232, 1.0149399080178227
1233, 18.252426574086712
1234, 41.293860044079565
1235, 38.44519843188368
1236, 22.976542131081942
1237, 16.296142432099487
1238, 7.225593906434824
1239, -3.698805448619396
1240, 5.8141214520542235
1241, 25.027860641543157
1242, 28.55127603793244
1243, 30.157814773617474
1244, 36.083270707272504
1245, 37.863405819504806
1246, 31.873443168221
1247, 13.920924571877094
1248, 1.466349532944605
1249, 2.183289456610055
1250, 4.258667349582538
1251, 8.995632573377407
1252, 25.529519559351456
1253, 32.78519640312675
1254, 17.93131145976804
1255, 6.495871798101007
1256, 4.54836078068729
1257, 9.378746055691408
1258, 16.00663701325925
1259, 18.805344110394117
1260, 16.442912950084974
1261, 10.105791274806734
1262, 5.505095893592397
1263, 6.684839689763066
1264, 16.840702777520164
1265, 24.322921032427757
1266, 27.010057568088996
1267, 28.666352491081852
1268, 29.28437321467868
1269, 28.19013738886133
1270, 20.324675684815475
1271, 8.015236433424661
1272, 5.068909404172928
1273, 7.274510821905096
1274, 9.103708536843442
1275, 1.1420307557664273
1276, -12.81823277408057
1277, -12.83674368694733
1278, -3.2133470924177345
1279, 10.409598144603933
1280, 21.71077338611508
1281, 27.39321702238408
1282, 23.453975226307875
1283, 13.805319751430261
1284, 3.180500751393083
1285, -0.15976331924366605
1286, 2.9367965207588895
1287, 4.276789140103574
1288, 8.20502310504321
1289, 16.962048157615527
1290, 14.138464183169162
1291, 1.8075850813793295
1292, -2.309867458905501
1293, -3.1313931976869753
1294, -4.564888425254139
1295, -2.449955356973078
1296, 1.83107839791046
1297, 2.5209184585849016
1298, 4.094292028696827
1299, 8.551009656359838
1300, 9.343417135931077
1301, 5.859231557587236
1302, -0.3797488927841641
1303, -3.35951753510426
1304, -1.5149330768356322
1305, -3.5343749327050773
1306, -6.404600269973116
1307, -2.927665348230448
1308, -0.13090339670930007
1309, 0.4250366640903849
1310, 6.073032654418057
1311, 14.22057541643062
1312, 19.16854215530566
1313, 24.907938418399453
1314, 30.71385556709447
1315, 28.954983834699533
1316, 17.52210790036702
1317, -2.871085812096908
1318, -9.118871606375706
1319, 0.9236091951338494
1320, 18.534151973036842
1321, 32.78605337725776
1322, 35.16998006875656
1323, 17.158908542965264
1324, -6.932437174761162
1325, -7.315056052075761
1326, 1.114456373980829
1327, 11.237278965520773
1328, 24.06455632962252
1329, 33.623244886726525
1330, 34.06385871241491
1331, 37.10603846617232
1332, 40.98265784102773
1333, 25.904819481188497
1334, 5.7563918053908765
1335, -5.473790972938559
1336, -11.112368269092258
1337, -10.378954515431587
1338, 0.7326777656248851
1339, 10.45496725953717
1340, 12.681640227377102
1341, 15.054803972988339
1342, 16.351294011223445
1343, 13.314256002566026
1344, 8.2799694000189
1345, 3.7294422990271414
1346, 5.38231307638307
1347, 5.646462903238216
1348, -1.0659364465536783
1349, -3.75554860889838
1350, -2.565515205944621
1351, -2.113809842805267
1352, 12.1338090099905
1353, 42.58740258430316
1354, 58.239031513540795
1355, 57.504244965214184
1356, 44.093321135059796
1357, 32.69892413190746
1358, 25.628993854738837
1359, 17.337163899876714
1360, 9.162016677711563
1361, 2.613179620682331
1362, -5.74081015660181
1363, -9.911106878582359
1364, -0.3465169512187458
1365, 9.29554585243659
1366, 12.599841491963161
1367, 6.130589372679651
1368, 1.2511636244469173
1369, 5.059564312526845
1370, 12.379705854886652
1371, 20.493783270416543
1372, 27.03348052826641
1373, 22.716316512443655
1374, 7.140704015508618
1375, -7.769699881484939
1376, -9.731942291674159
1377, 8.321830258675845
1378, 24.650732568133208
1379, 32.79647951801212
1380, 31.61300669878233
1381, 29.677800823706775
1382, 32.17974392230121
1383, 44.85318475963413
1384, 53.19181240398757
1385, 44.50169650422936
1386, 13.04922537493826
1387, -17.01668761579549
1388, -11.495357561790797
1389, 4.696183885754635
1390, 22.17295035471807
1391, 36.36315472304159
1392, 40.1428875134261
1393, 30.38792510793064
1394, 16.9592828811019
1395, 6.545591860770855
1396, 5.612485089993015
1397, -1.9137409734678386
1398, -12.260762234525828
1399, -2.7608374808705776
1400, 2.4656386864758133
1401, -4.190252238872972
1402, 7.831409134980049
1403, 19.467021037013637
1404, 8.598650434168803
1405, 15.527507908670032
1406, 37.14057289123821
1407, 46.343632388835886
1408, 45.35496799067823
1409, 40.19664511867131
1410, 46.795331330291674
1411, 49.55278032867659
1412, 38.25848541872142
1413, 26.015435624698966
1414, 10.874846677679216
1415, -8.42956929848242
1416, 2.666269884075973
1417, 33.2529340138924
1418, 33.20124434930881
1419, 24.693153999210836
1420, 16.920233790669954
1421, 1.0923321564873731
1422, -12.700636682443474
1423, -16.2626742437742
1424, -4.015069769586489
1425, 19.77610913795752
1426, 44.77435603741901
1427, 49.284213017120464
1428, 33.53027592086596
1429, 12.35677197829159
1430, 3.6504365996790966
1431, 10.033587395758104
1432, 18.600208879537604
1433, 20.730060968094904
1434, 13.118740618747097
1435, 3.3098254584108417
1436, 0.11109047379068215
1437, 10.279384404496568
1438, 20.10976142115328
1439, 20.657312503200956
1440, 2.9447033252758956
1441, -12.606485226024688
1442, -19.398336377208352
1443, -16.423602928252194
1444, -4.208150120132586
1445, 12.789384005102193
1446, 14.33833079454962
1447, 13.616790478379698
1448, 20.027078929434538
1449, 14.915697740618953
1450, 7.975445926494103
1451, 14.796242119100953
1452, 25.033838505488347
1453, 29.24787781515238
1454, 15.910084180615513
1455, 1.9462102338691238
1456, -3.1437356955302675
1457, 7.7109814434311374
1458, 19.34726942029988
1459, 22.37489149283283
1460, 15.406751554847006
1461, 11.933604071590935
1462, 19.776914299687405
1463, 25.15774151634855
1464, 19.170226798775047
1465, -1.0814209754717012
1466, -8.934470412479868
1467, -3.3497994340932564
1468, 10.66623047492908
1469, 19.57067514236246
1470, 20.044543107370146
1471, 13.346350033807994
1472, 13.18548943271162
1473, 16.434017956320304
1474, 6.280915219546614
1475, -2.011965236336664
1476, -3.696818939568857
1477, -1.7820294570071837
1478, 5.801371448434111
1479, 15.582230698000558
1480, 7.482023433097083
1481, 1.0851420454603158
1482, 8.566988627385172
1483, 24.09127722365679
1484, 36.348664618843486
1485, 36.020316065656516
1486, 17.415038933085953
1487, 3.5023423656616615
1488, 16.598737849272993
1489, 26.72127713705345
1490, 23.48003666910222
1491, 3.667234827071752
1492, -7.473803196648305
1493, -6.0914349869656235
1494, 4.737953896857562
1495, 9.073858555159177
1496, 6.483392550849885
1497, 7.080635893512181
1498, 13.872685745672925
1499, 21.491302695191507
1500, 18.1153961911009
1501, 7.824499242191678
1502, 1.7900946760153147
1503, 18.999063188951595
1504, 18.15217649101669
1505, -4.622286290756847
1506, -10.27535676555317
1507, -9.009549785255786
1508, -1.632711894734257
1509, 26.522758566919038
1510, 37.63784197668224
1511, 22.107122722129134
1512, 17.18032115198025
1513, 17.97419636570703
1514, 18.508545417326104
1515, 13.683552437433946
1516, 2.7283085864517034
1517, -7.985645068286658
1518, 4.274806195592419
1519, 19.256179117400734
1520, 20.43925404585525
1521, 6.143050873958828
1522, -0.6162572957775865
1523, 9.067691825215206
1524, 10.98145031987383
1525, 2.3462714543297807
1526, -13.709141676223453
1527, -26.081280276116786
1528, -20.306657355909238
1529, 4.484513929415471
1530, 8.984714959220128
1531, 11.816178323147824
1532, 23.907975069815848
1533, 20.310847040751923
1534, 11.752074804584709
1535, 9.96417251176922
1536, 19.356265719010025
1537, 30.968228520803905
1538, 36.125982535413186
1539, 23.379060189735355
1540, 13.619905662952533
1541, 19.725256970677037
1542, 29.78339710452633
1543, 28.52059163815261
1544, 10.201213057132463
1545, -13.250110870538492
1546, -17.36936456108083
1547, 3.8557433394228156
1548, 25.48218009235393
1549, 34.01854236180907
1550, 28.896451431830656
1551, 25.55362224609553
1552, 28.19440407107254
1553, 33.38050039495943
1554, 28.086509515365606
1555, 15.385379943131966
1556, 1.5505789535961867
1557, -2.5712164952951753
1558, -4.014735654644255
1559, -8.673474325093366
1560, -21.71592822901698
1561, -19.835821337379457
1562, -3.5364079367509476
1563, 11.801914900166366
1564, 10.901777747333199
1565, -0.8424260633016729
1566, -7.5584329190471635
1567, 1.53893945820505
1568, 11.61272122360424
1569, 1.3072329940462168
1570, -15.113418384370561
1571, -22.429008553182484
1572, -9.708011038547738
1573, 8.620902312526141
1574, 24.80875937818655
1575, 37.0781718483513
1576, 57.4926888358832
1577, 88.4510204069013
1578, 121.91439653729913
1579, 152.18792526501397
1580, 185.49544827929867
1581, 220.9192413700796
1582, 245.9795545746506
1583, 249.02033642988954
1584, 232.813594239248
1585, 213.54245070292313
1586, 202.38981377408413
1587, 191.08755694663932
1588, 160.07413118637078
1589, 104.11708417049772
1590, 41.60416975625867
1591, 3.5047421835606656
1592, 3.965235115892483
1593, 15.3076655885543
1594, 13.097067058335597
1595, 4.141886797716097
1596, -3.6349083912912192
1597, -7.429406851761314
1598, -12.210830091969001
1599, -11.870967169262258
1600, -5.5097633748926
1601, 2.0737086537787945
1602, 12.195197964445242
1603, 14.164255778788174
1604, -5.620300832827979
1605, -10.145955730283504
1606, -4.511516105546207
1607, -0.7995519919145408
1608, 17.046674852563456
1609, 29.99946108529707
1610, 26.486335958600648
1611, 24.424488150290017
1612, 12.814836617718584
1613, -5.7094798295775036
1614, -8.737028106574371
1615, -1.7924627341831183
1616, 12.541259145979211
1617, 29.540856440188236
1618, 22.433022215523124
1619, 5.112306271120133
1620, -0.7194383094097248
1621, 0.07072452419970432
1622, 4.123918267325507
1623, 7.477369472968576
1624, 2.0996280045103504
1625, -3.703270196727317
1626, -5.889094337169809
1627, -3.0644321038753333
1628, 4.359673876355373
1629, 15.478512077661208
1630, 25.43654307064162
1631, 19.00510004699072
1632, 13.122961942855909
1633, 16.571900085532434
1634, 7.794850215729866
1635, 6.144654445145989
1636, 11.57847925413671
1637, 5.29060886786624
1638, 15.116151885714544
1639, 25.82417628144708
1640, 13.732325030958464
1641, 11.363203963923752
1642, 5.940033769471711
1643, -8.68257545165352
1644, -13.27718185564504
1645, -13.337048619155894
1646, -10.627757448578677
1647, -2.7425834065059007
1648, 12.091919581298953
1649, 21.05622343414575
1650, 12.024561097388869
##END=



