##NAMES=
##LOCALITY=
##RRUFFID=
##CHEMISTRY=
320, 6.9968722352227815
321, -3.9831750496450695
322, -10.496872645490384
323, -8.638773945120647
324, -2.0681743192885733
325, 3.12236669036065
326, 6.53500481230185
327, 4.80664864271148
328, -0.5163887960575266
329, 3.285793733549781
330, 19.61891613452417
331, 33.327915792636304
332, 36.277299004376346
333, 33.02927272042598
334, 29.35743927806834
335, 24.743670044366354
336, 17.70657114576352
337, 9.59878712385489
338, 10.290318183063391
339, 20.728000492586943
340, 27.413735331777843
341, 25.60024535741877
342, 18.835455324684062
343, 10.038672849704199
344, 5.272510262236665
345, 13.426170379541418
346, 30.713766600875715
347, 36.980090457776896
348, 31.0517247583266
349, 19.763350175611322
350, 5.021949848669465
351, -3.7238706351463406
352, -2.740546621476369
353, 5.634198662791732
354, 19.480381452514393
355, 32.39050918912062
356, 30.353652127997066
357, 15.939286668865861
358, 5.221008640543914
359, 0.8899818154127388
360, 1.6832909139175172
361, 7.322367863194813
362, 9.587148274159063
363, 3.4188770085283977
364, -5.5564824521939045
365, -11.003320445051031
366, -12.756513848695704
367, -9.125654740520531
368, -0.8337273425372587
369, 5.9203038717655545
370, 9.930445423787205
371, 8.95102486566202
372, 2.2683243335427505
373, -3.021272274131661
374, -2.7121494847365284
375, 0.47117111695934
376, 2.795152860122016
377, 3.572674440144965
378, 1.0361939679883108
379, -3.874663051470634
380, -5.908217263149709
381, -4.371865897157477
382, -0.1839926793209088
383, 6.645494380235959
384, 9.58740358091518
385, 4.208401845702156
386, -4.1432498368080815
387, -8.32673012102714
388, -7.971773653898708
389, -1.0148681744540227
390, 10.961877030034884
391, 14.862024966216268
392, 9.358059658467027
393, 3.5334172881689483
394, 0.6248882626969134
395, 3.9883041733237405
396, 16.135235594854294
397, 28.587762221321555
398, 31.571485214545646
399, 25.884060678656624
400, 13.442477157278518
401, -2.8184573153098427
402, -10.383637877649107
403, -9.423185973246746
404, -9.067813016540185
405, -11.485383100011859
406, -13.340894913217653
407, -13.125968332169577
408, -11.13357859425787
409, -7.450104441290023
410, 0.05255121781647176
411, 15.264374906785633
412, 32.704216802113024
413, 34.0694130817601
414, 21.138979999006096
415, 16.788056517829773
416, 24.02355732443857
417, 39.48833555155443
418, 63.290058894163394
419, 87.66195095784133
420, 110.23069685905648
421, 124.0987586276151
422, 120.97392153358487
423, 107.3243776882473
424, 97.55656284555789
425, 92.20247810453066
426, 91.28274030875855
427, 92.7458118458726
428, 80.28652950980359
429, 51.30229796914546
430, 24.03640951792886
431, 8.045644122385056
432, 2.261345056070695
433, 6.477449219707978
434, 16.410752978108576
435, 26.800277160339647
436, 31.95887388694382
437, 22.350856511317033
438, 2.921134088503095
439, -3.4623610755875234
440, 2.8910735194194785
441, 4.816522730825909
442, -1.015215082411487
443, -7.6570478099506545
444, -12.829679817927172
445, -14.823139522730798
446, -12.32596622703204
447, -1.9792262062801456
448, 21.13225134893355
449, 49.6586956475976
450, 60.35609384082227
451, 56.42041963422935
452, 52.665751057040325
453, 50.25683310509794
454, 47.45057153118569
455, 44.035027291156894
456, 41.737605336200886
457, 41.05476198891165
458, 38.12496727748021
459, 30.781518432664143
460, 24.86801168992406
461, 28.621897085724413
462, 34.818889067274995
463, 35.2847260718122
464, 28.72730406167966
465, 11.828241658723073
466, -10.77791633614379
467, -23.35362914058078
468, -24.743545892339625
469, -15.129376140796467
470, 5.6836052919197755
471, 23.656741145056913
472, 31.750130524644646
473, 30.14797802722387
474, 18.9724926137701
475, 6.552071517126933
476, 3.0985531108844953
477, 4.238935473254969
478, 2.339076357997328
479, -1.887332902962953
480, -5.450126646835088
481, -8.1681802341609
482, -8.797514156373836
483, -6.613288264410585
484, 3.9473347567832207
485, 24.49679504088226
486, 39.05243842856953
487, 41.53153259623514
488, 40.18363685341092
489, 40.25361292225671
490, 36.724649460370074
491, 24.28026186577108
492, 7.494840132005265
493, -4.9420849991888645
494, -12.892339395943964
495, -13.752171183799419
496, -8.684171566248096
497, -2.71897652527241
498, 3.1541541386300196
499, 2.6453190939182605
500, -4.882014455872195
501, -9.215139231838293
502, -7.214358768557759
503, 3.7574154101434942
504, 25.960910001695083
505, 46.68495966496721
506, 56.337243436198605
507, 53.28787296226301
508, 35.47740082392056
509, 12.02815806646231
510, 2.107113966997531
511, 5.435743303160052
512, 23.059964245299852
513, 52.427026733495495
514, 70.97292575212668
515, 76.8336191450453
516, 75.17145531622327
517, 67.86277721944725
518, 65.994443351266
519, 72.72938929579414
520, 77.02589555399982
521, 73.62556615387848
522, 61.93690658308378
523, 41.53515668018781
524, 20.599627407596927
525, 10.368309254323776
526, 7.662089503729931
527, 8.51754910343243
528, 10.216217309925923
529, 6.0099863197565355
530, -1.2841374702766188
531, 0.9234753392879611
532, 13.518325478333736
533, 34.4014389708268
534, 59.424802867494236
535, 68.0599714342984
536, 56.10728568976265
537, 35.09059485241596
538, 9.442230002833185
539, -5.3335938303221155
540, -3.3962154298669702
541, 4.179417097655005
542, 9.828525154905037
543, 11.992881819835475
544, 9.408925430192085
545, 4.39528120250543
546, 1.1615304118472523
547, -0.4186466681780985
548, -0.16842926023946347
549, 2.2646620329569487
550, 8.156426886952431
551, 17.21395274854376
552, 24.07363647695547
553, 28.430520048643302
554, 32.24152622017027
555, 34.903176361427995
556, 25.554226245822974
557, 2.478784728937626
558, -8.706141927803856
559, 0.2605177014220317
560, 10.523019596016638
561, 12.53900697262361
562, 15.9352515812825
563, 28.74368096234457
564, 35.831420945045465
565, 20.878527414082782
566, -0.7697870193078415
567, -5.866514818726955
568, -2.012311762688114
569, -4.115735884733567
570, -9.650808010559103
571, -10.061807153069822
572, -6.24654378409241
573, -3.274847521891388
574, -0.9418498789268597
575, 3.3863689455288295
576, 9.934220111681952
577, 14.07524126182716
578, 14.40069004191264
579, 4.997424635847892
580, -13.934557801872415
581, -18.58202855084255
582, -0.3383314398583934
583, 19.178075681152222
584, 28.26210102674895
585, 29.04829495228978
586, 22.962495810226756
587, 14.251471838168527
588, 6.726462672246726
589, 4.297214804608302
590, 10.675679519867572
591, 17.257416171862587
592, 10.777277654919544
593, -2.0864501365817887
594, -7.03898034708709
595, -4.628866956219099
596, 3.9602540596019935
597, 15.848411799421683
598, 17.694414927591424
599, 10.352977829419615
600, 2.9925842376010223
601, -2.3175631822077776
602, -2.2997021118603698
603, 2.7143728374894636
604, 5.185030771724996
605, 4.213079742282844
606, 7.05062006019125
607, 15.82137291556728
608, 25.47764756503966
609, 34.35897032523644
610, 39.8677235427258
611, 40.68462880781908
612, 29.28281065795818
613, 1.5390748080217236
614, -17.577871851492546
615, -12.202937626095718
616, 4.174904155654531
617, 20.42980454439339
618, 30.870717424516897
619, 29.36526899986484
620, 18.407872330956707
621, 1.6489140077451339
622, -11.098213965816285
623, -3.7793732948966863
624, 16.69552029347733
625, 33.06122466848501
626, 41.500619134083536
627, 33.46464439691772
628, 14.586907930025518
629, 6.2497672502690875
630, 8.473805155459559
631, 18.746335163276854
632, 32.26727286346295
633, 31.267029177722634
634, 16.20987664151653
635, 3.8346179676327665
636, -2.8522445175567555
637, -5.567600072024561
638, -5.132290881514109
639, -4.629157507848959
640, -4.766395630411353
641, -5.515654955804166
642, -6.280086462574218
643, 3.19169569948599
644, 26.437388903187184
645, 42.63391321059635
646, 43.68189057794916
647, 34.949613761179535
648, 19.170820746242498
649, 5.9410502066161825
650, 1.1320370751805058
651, 3.960279116191032
652, 14.461050635825359
653, 21.739686140630965
654, 17.97297865271912
655, 14.288208960119391
656, 21.80382587268059
657, 30.49817827744937
658, 31.61617049207689
659, 27.509152432050996
660, 20.963156869324393
661, 10.089153688834358
662, -6.684408285934751
663, -18.086860662814615
664, -5.123399983061518
665, 17.248750135084265
666, 20.54640126068216
667, 14.05198003939904
668, 17.198951279987796
669, 23.353282852074244
670, 16.666127006346414
671, 4.01876239650619
672, 4.206932887385847
673, 11.784408472402902
674, 9.031349876750937
675, -0.3058269925013519
676, -1.916637760357844
677, 2.2012554161551634
678, 3.044812191526489
679, 0.29376589042885826
680, -3.6117403565331188
681, -7.520731118954245
682, -6.5122841907896145
683, -1.3099180877961771
684, 2.507702622303441
685, 5.35957935379929
686, 11.177003963808147
687, 18.733197989964992
688, 21.903490513488578
689, 20.985583632534144
690, 22.708887060017787
691, 26.80609074763788
692, 25.08416468307587
693, 17.70654505449056
694, 15.096205305914282
695, 19.781192526525047
696, 23.77538297713636
697, 25.783260570671246
698, 25.666475265871213
699, 23.10194025215924
700, 15.663455657951545
701, 3.967423480351954
702, -1.4134024750619574
703, 0.699884835982175
704, 4.293803159462641
705, 8.00911845023711
706, 9.525326798708647
707, 8.449455028398006
708, 5.735367887394659
709, 2.5578550694881415
710, 2.4083863842151914
711, 6.440334368470758
712, 16.43490256017003
713, 30.596993613473842
714, 30.61149539340113
715, 12.757486203975077
716, -3.3430376164233166
717, -11.969443122678058
718, -11.021423795517876
719, -0.2984254248740399
720, 11.132447281347595
721, 19.800798115752514
722, 20.467950626968104
723, 12.252379640122399
724, 4.769505049885993
725, 1.4597569275015303
726, 1.8230762004004646
727, 5.304963460006547
728, 4.690003218498532
729, -1.424055892729939
730, -3.268554858188054
731, 1.596306726169587
732, 8.45224911928517
733, 15.239819737959806
734, 17.95410143019126
735, 15.7113435543979
736, 12.223910794262792
737, 8.229606773370506
738, -0.28014455507536695
739, -13.018922763586033
740, -15.097237919996587
741, -4.038527128300757
742, 2.2395502490730905
743, 0.5587956459812631
744, 3.834279421566407
745, 14.37968507927144
746, 18.507027093918623
747, 14.189802564608271
748, 12.864352197751032
749, 15.793383064451518
750, 10.7951537609365
751, -2.479685184077425
752, -5.446155594042466
753, 3.2426034808518125
754, 7.0789449256258195
755, 3.752714694292081
756, 3.8654874736075726
757, 9.121571279326872
758, 18.603550589671613
759, 30.37206226232638
760, 39.917411783752414
761, 43.95563024296962
762, 28.77595271866994
763, -0.7503457465973042
764, -10.61826596679748
765, -2.2709622300035335
766, 2.2168855456852725
767, 1.7098725766186362
768, 1.1823858714565176
769, 0.4919471463235823
770, -2.8446658540892713
771, -3.2592105190947223
772, 20.334231161888965
773, 61.001673063437465
774, 82.0793497022969
775, 83.19167331945482
776, 70.35802050404845
777, 48.78107275024968
778, 30.82073182736076
779, 14.908110708616277
780, -2.486172046817501
781, -16.570664648616912
782, -14.906842859084009
783, -3.313098937817813
784, 7.630161493564174
785, 18.983796692233682
786, 30.338488011632762
787, 34.54525500821046
788, 21.365139411013388
789, 5.014135359662305
790, 3.8635485764229998
791, 15.477123772765935
792, 38.442731683464444
793, 55.333385690794785
794, 51.49258282298433
795, 38.71932394701298
796, 26.36151179171975
797, 12.69643422629224
798, -2.0261722971999916
799, -10.08803616483874
800, -7.16322700291812
801, -2.3080823311711356
802, 0.5831615946081001
803, 10.00166314087528
804, 29.56123768421685
805, 42.668755523618984
806, 43.572404558549806
807, 32.3377355020325
808, 10.507349001861712
809, -5.071807536991855
810, -11.09675689948699
811, -2.5883567126679736
812, 18.417812237286398
813, 25.00587334970396
814, 16.07758298875251
815, 12.302453745554885
816, 16.14791204349649
817, 18.392287066796598
818, 19.238803416627434
819, 22.805889690583626
820, 26.037992453166225
821, 18.733483507576693
822, 6.8984620371147685
823, 7.6250230341033784
824, 16.516179434900096
825, 22.28309999415478
826, 20.737070600779134
827, 5.481610839111454
828, -11.071475571185601
829, -14.71230122457473
830, -9.759941296399575
831, 0.023761470163208287
832, 8.175096597587071
833, 8.580027676512145
834, 4.525147150287921
835, -1.6782911543696173
836, -3.750866174080329
837, 1.1008618816053968
838, 4.788429922679825
839, 4.393366637904819
840, 4.271925960834324
841, 6.722878494441375
842, 20.685643942727438
843, 44.333027485941784
844, 52.09100624100074
845, 40.549867049986915
846, 19.75842894552852
847, -4.052026398059297
848, -11.358645434311256
849, -2.229010217422001
850, 19.01609479278295
851, 40.721467974535244
852, 33.566398626776845
853, 9.711981255967657
854, -2.8755435510938696
855, -3.795093863567672
856, 8.272703775281116
857, 21.57490610672039
858, 20.43362067803855
859, 10.654397828550827
860, -2.6850643417719766
861, -6.747410952354585
862, 5.862675999808744
863, 21.118842816581036
864, 30.642272073941967
865, 26.155263639568147
866, 6.504768118846641
867, -7.79989204135245
868, -12.944265654518858
869, -10.533826202462478
870, -3.086549359066794
871, -2.985826287896998
872, -7.931124282794826
873, -2.7687390773321567
874, 11.900548532316407
875, 30.27205079571786
876, 45.10473683394048
877, 44.84284128403351
878, 32.791070529053286
879, 14.442862118430185
880, 3.9998176612316456
881, 13.98667044257354
882, 30.755129235575623
883, 41.78429871133403
884, 43.60600504518425
885, 34.60360417367701
886, 20.114604712242
887, 3.5644466529070087
888, 0.482742738289744
889, 11.811756070856518
890, 15.411508059457447
891, 7.431572431988116
892, -8.670442585058481
893, -26.113329810410505
894, -19.073960045281183
895, 3.9381589894646822
896, 17.12284288270712
897, 21.167693121493357
898, 20.128847164818126
899, 14.926188805623951
900, 6.603623089551093
901, 5.994020524125972
902, 20.7293103909833
903, 28.697617605017513
904, 18.963905749863443
905, 9.439532463846717
906, 8.024494791555298
907, 15.293191504478273
908, 27.974957490617726
909, 28.99657584220904
910, 18.753218641436433
911, 11.772976074778853
912, 10.763578649336068
913, 15.342594615784947
914, 20.531209403498906
915, 18.690887861975625
916, 10.387068600124167
917, -3.3483924472625404
918, -12.812410104037099
919, -10.494217787434081
920, -2.486433795423636
921, 8.103660616330217
922, 16.035720696311728
923, 18.849582175942942
924, 23.902757455035953
925, 32.24179541784224
926, 39.05604310026638
927, 42.866050969836124
928, 41.05443620024789
929, 34.41916291920961
930, 25.557183309761058
931, 18.844562816634152
932, 23.118174871069186
933, 27.181551583600594
934, 21.308514844054116
935, 10.757913268043012
936, 0.2562648453449583
937, -6.078073541308186
938, -7.003569871475975
939, -6.110868426623256
940, -4.720095137073258
941, -5.453601378875646
942, -5.17323518398689
943, 10.225536399368593
944, 33.75300647347376
945, 40.17398173426318
946, 36.23841574086009
947, 34.19310082405218
948, 26.529666346474187
949, 6.384586325754299
950, -0.6057288604897622
951, 17.27841050741563
952, 20.285108140892135
953, -1.7843896743656842
954, -9.714688393932192
955, 0.3312299458339112
956, 7.315648485152451
957, 11.183367496673327
958, 17.93135149204727
959, 22.976954988316265
960, 16.813694246397517
961, 8.42987774127323
962, 9.175589925052918
963, 16.842587903408003
964, 28.18094798509037
965, 25.5194346120702
966, 4.209934636703565
967, -10.01559012128837
968, -12.944794010273654
969, -8.618379161544908
970, 2.6421509081123986
971, 21.297400400853803
972, 35.19362274962259
973, 22.038837436729864
974, 3.6620377155254573
975, 4.996042976464196
976, 11.974066877066434
977, 14.997965542445854
978, 12.322842509987368
979, 3.6573286042134896
980, -7.551794155384414
981, -17.58555765365236
982, -8.746059440340105
983, 13.634402910117842
984, 29.423338095550662
985, 39.650546441057486
986, 49.878886792876074
987, 61.48171656910972
988, 75.14440631324896
989, 75.21249817569014
990, 55.29633157937906
991, 31.562271657581732
992, 9.618972475716873
993, -4.192178122090354
994, -9.055961725272937
995, -1.1550528538869003
996, 9.74341871924571
997, 4.474896239478767
998, 0.6071078398749705
999, 16.53259865160362
1000, 32.81103398595724
1001, 38.48091206852314
1002, 33.578821676745974
1003, 19.377965341288927
1004, 3.9378346252087795
1005, -8.690597863764197
1006, -12.120977581652824
1007, -8.229838815374933
1008, -0.8381437899242883
1009, 6.597241503317946
1010, 10.63269941374665
1011, 17.914909676738716
1012, 30.146592702373255
1013, 37.285554499220325
1014, 36.48958150170256
1015, 29.63346909400252
1016, 18.60920684508892
1017, 8.447338941092312
1018, 3.9984084422248998
1019, 11.195076784609228
1020, 20.05987934355153
1021, 19.76244503600992
1022, 17.575866106056083
1023, 16.61957879132069
1024, 12.422856664291658
1025, 6.64342908740764
1026, 13.782267199039552
1027, 23.668791385839313
1028, 7.007708437157589
1029, -13.428541458873497
1030, -7.277613598877679
1031, 7.468621333855253
1032, 19.324453200882544
1033, 29.54352356725235
1034, 36.25636219566195
1035, 21.29123772236494
1036, -7.232569101136278
1037, -9.912195833378291
1038, 2.058904087689598
1039, 3.7076242265284236
1040, 3.1067258120801853
1041, 7.700573065949584
1042, 10.110689664948495
1043, 7.562787048513883
1044, 4.879652802751252
1045, 1.7979499295654477
1046, -7.572618671081273
1047, -17.41489796425276
1048, -12.49083444812186
1049, -2.081986787853566
1050, 3.4988753780737625
1051, 4.060278425381284
1052, -0.28100326516937457
1053, -5.963129223625401
1054, -10.973828885830699
1055, -8.28111179465077
1056, -1.6705092047684502
1057, -2.378545220989281
1058, -6.60713423325069
1059, -9.60474326127337
1060, -10.5285727130954
1061, -9.142618920028099
1062, -8.815716973092321
1063, -10.204944020118319
1064, -12.018162347117823
1065, -11.483084224676531
1066, -2.0635242542534797
1067, 12.181209542546185
1068, 26.69999117405314
1069, 44.11555877835053
1070, 67.30047818635967
1071, 103.73895390310327
1072, 146.65890151150143
1073, 190.01464350029983
1074, 227.42702054727079
1075, 246.92425572192087
1076, 257.8295516836538
1077, 269.689558434985
1078, 281.2341954777298
1079, 290.5426043835748
1080, 286.6422586129754
1081, 267.3550668091475
1082, 233.60092636956279
1083, 193.23126331214962
1084, 159.63926700531943
1085, 129.8529096107436
1086, 100.89455266550158
1087, 64.0686195702774
1088, 26.17496380424018
1089, 4.828614285371714
1090, 0.08115219623232406
1091, 7.718345274908188
1092, 12.396800696355285
1093, -5.184210873409029
1094, -25.13779461836407
1095, -36.41267521834175
1096, -30.96285960745081
1097, -10.420695321228777
1098, 8.578227903881725
1099, 17.453494299926206
1100, 1.8816558178764353
1101, -10.151882579670428
1102, 2.078336001375874
1103, 17.97373144056246
1104, 27.471414275639745
1105, 20.520194621127757
1106, 1.7463888499885343
1107, -12.348934704176827
1108, -16.363965772368374
1109, -4.2592816908420446
1110, 6.932040987390565
1111, 10.229691461909852
1112, 13.463924228674841
1113, 18.20486625157082
1114, 23.30186339818647
1115, 22.91531780414175
1116, 8.495614885596751
1117, -5.642248299335961
1118, -12.09965818812384
1119, -8.777054169869643
1120, 3.6014087247253883
1121, 18.630229596922163
1122, 25.833418462592817
1123, 8.311332336020314
1124, -2.0542760444488977
1125, 15.21969681294172
1126, 26.731664731921683
1127, 23.571558157494337
1128, 16.430471533887385
1129, 6.795826425283167
1130, -4.501304900878722
1131, -5.136964731744683
1132, 14.563440580616998
1133, 23.698560519211696
1134, 14.223419371886393
1135, 4.375080203093148
1136, -0.8616100155529693
1137, 2.1317671575000077
1138, 14.301345325688771
1139, 36.33115111479742
1140, 48.316998421154494
1141, 45.914457027068465
1142, 43.737876609461864
1143, 42.296007001736825
1144, 37.710588154804555
1145, 29.567164054321438
1146, 18.107798678007157
1147, 13.895468012723313
1148, 18.499543663459235
1149, 23.866376430108176
1150, 25.907925521653624
1151, 17.92821668506099
1152, 1.5115796288230285
1153, -19.875590291590697
1154, -20.41528885501998
1155, 2.503917922096889
1156, 18.19960901025138
1157, 23.518926756969222
1158, 21.143328649436853
1159, 17.10897227165333
1160, 16.098871964069758
1161, 21.643428812665434
1162, 29.740117833357544
1163, 19.974979356210724
1164, 0.8187292863829043
1165, -10.29209318671451
1166, -8.928332486609634
1167, 5.95031778987277
1168, 14.341758808498525
1169, 11.804932533170131
1170, 2.8193732657666715
1171, -2.8987226619171906
1172, 5.208660918903661
1173, 11.803192743568616
1174, 9.608203272112632
1175, 5.0496915336759685
1176, 0.7397048914590414
1177, -1.4601844732458176
1178, 7.1900581868439986
1179, 33.479582819015604
1180, 39.048009720410846
1181, 19.364981891346815
1182, 15.054798768632963
1183, 18.665577157174084
1184, 8.097291643214703
1185, 0.41304586433352597
1186, 3.5780075007266987
1187, -0.05191975756952161
1188, -8.242795161058893
1189, 0.10273231731139276
1190, 15.567230304008035
1191, 24.241592383322313
1192, 28.017064281029434
1193, 28.89899179523104
1194, 33.470879022671625
1195, 36.01567788234115
1196, 22.940133346627363
1197, 6.9589919439069945
1198, -2.4317251792124353
1199, -12.311175947022775
1200, -18.86953256846914
1201, -1.3795350362904628
1202, 26.551133965631834
1203, 44.163059584352595
1204, 50.443364443259725
1205, 46.6249010196002
1206, 41.596794656310976
1207, 37.33666623942236
1208, 35.011260706365874
1209, 25.395149591006202
1210, 4.742700984194698
1211, -4.4736614882269805
1212, -0.21298890131583903
1213, 11.07325033043162
1214, 24.85064830993997
1215, 34.0576264882211
1216, 29.23947162376612
1217, 11.966809697878034
1218, 3.8471808524554945
1219, 2.4390565947849154
1220, -0.663106166771513
1221, -6.443744282947591
1222, -12.853128368444686
1223, -1.7183742809249907
1224, 18.104722463314374
1225, 17.901924637449383
1226, 9.577598999431302
1227, 2.7425186214281894
1228, 0.8578512099754789
1229, 3.631660847085641
1230, 8.679612779274066
1231, 8.629365537198964
1232, -2.5218152261809337
1233, -13.069954332976977
1234, -16.067438657967386
1235, 3.681844014281751
1236, 29.93285996186546
1237, 36.07007292970275
1238, 23.35675686242871
1239, -1.0261049030809772
1240, -4.202317972008132
1241, 4.856685679321117
1242, 4.973088776536315
1243, 2.5916518694516526
1244, 1.0216519792359122
1245, -0.391950583962398
1246, 3.7753568247160274
1247, 25.323126112890122
1248, 45.394995810831006
1249, 51.17644586121901
1250, 37.21268219411286
1251, 14.165234083061478
1252, 11.89100450532328
1253, 16.963886174478375
1254, 19.792845287698356
1255, 28.385913217500956
1256, 39.562068601585224
1257, 44.78024322684405
1258, 49.53615773821434
1259, 57.72971021631929
1260, 55.59067397841454
1261, 39.55293191026408
1262, 10.38999485596105
1263, -10.852472118064725
1264, -8.873778206432235
1265, -1.5499698218443427
1266, 5.623286269772507
1267, 10.737213187284851
1268, 19.609967832086113
1269, 35.606104886100184
1270, 44.00051717012934
1271, 37.642867907411755
1272, 8.066320032512067
1273, -14.262056419722285
1274, -2.404913140995177
1275, 16.352892665366653
1276, 31.19096902449519
1277, 35.24161281953502
1278, 24.033041442149624
1279, -3.4717994173358875
1280, -9.024806315867863
1281, 8.072405449019698
1282, 15.298808946256031
1283, 11.287726182530832
1284, -0.21333590288168125
1285, 2.225132831478504
1286, 18.484654746109072
1287, 28.443410018576515
1288, 31.841982840278206
1289, 29.21218084739644
1290, 16.069981302697215
1291, -1.3345660593961384
1292, -2.903506412818615
1293, 0.6329543060953711
1294, 0.3588607989177035
1295, -4.451349797112925
1296, -5.771410809322333
1297, 16.712260694755514
1298, 33.89109851716262
1299, 27.947277014009615
1300, 19.32090197493153
1301, 12.7912501926794
1302, 11.287463882617885
1303, 25.80034342345175
1304, 52.07828475561405
1305, 35.63164798054254
1306, -0.2559329984530905
1307, -3.1419054001198674
1308, -1.3399087437455819
1309, -4.116651552258418
1310, 5.498692409870046
1311, 15.067929833760218
1312, 5.627878194872665
1313, 11.744169857913903
1314, 31.777367213070875
1315, 18.729121598409392
1316, -5.893015479188534
1317, -17.61505124221253
1318, -17.914625579602443
1319, -5.0640857340893035
1320, 26.861820356569524
1321, 46.94725306530745
1322, 37.52887580093352
1323, 33.70001820961102
1324, 33.79466168127965
1325, 21.435613493407573
1326, 8.04399799032035
1327, 0.4429652326896303
1328, -2.1925432832367733
1329, 4.720237886998802
1330, 26.862037902876637
1331, 37.4421065205147
1332, 28.529886136948562
1333, 5.046723345812097
1334, -9.629746947594867
1335, 0.25920683644380915
1336, 11.863916607792817
1337, 15.993520875706281
1338, 5.249053031534686
1339, -4.637384413718337
1340, -5.123402907363243
1341, 7.385888701348222
1342, 20.29301478249795
1343, 13.584807223892767
1344, 11.655874634369638
1345, 21.80374126786046
1346, 33.25987646997328
1347, 40.71135296205648
1348, 38.98593605148517
1349, 17.332666059608755
1350, -10.52701987289015
1351, -13.076670999114413
1352, -6.244764078089702
1353, 2.526072470781628
1354, 15.755926651641857
1355, 25.394604164737984
1356, 22.920195628100828
1357, 21.281215181277048
1358, 20.485238353949853
1359, 10.39312125886795
1360, 3.8771780193837913
1361, 8.22709290262469
1362, 23.22559603655509
1363, 40.89244732762768
1364, 50.298310523484815
1365, 43.55942306810766
1366, 23.758377719403597
1367, 9.36905782009012
1368, 3.1307359547756732
1369, 3.1122999765364057
1370, -2.192397937742953
1371, -7.186603387885725
1372, 0.9008767290920332
1373, 9.185326130710564
1374, 12.666929978538064
1375, 13.55262560418555
1376, 13.779232893007702
1377, 14.90742415865634
1378, 17.878549589352133
1379, 15.507574864148864
1380, -3.7701324875940827
1381, -16.675448104142106
1382, -14.398776761808676
1383, 4.83200632257126
1384, 20.957143416628014
1385, 18.116594887594374
1386, 11.170676320372422
1387, 6.520189989272922
1388, 9.90761077581169
1389, 8.71256117379994
1390, 1.7642201913179179
1391, -0.6523009870859369
1392, 3.619438648871892
1393, 15.77196721044993
1394, 32.92552271010072
1395, 41.228926730968396
1396, 23.927436177331174
1397, 5.03851838919627
1398, -4.5726012021377755
1399, 0.9744572658523794
1400, 13.951669869995385
1401, 28.62525042483435
1402, 33.7780944526819
1403, 37.550766758366535
1404, 49.024497674430904
1405, 60.344475502357454
1406, 63.443117489964834
1407, 47.23346613104923
1408, 30.27221853384276
1409, 21.476944742889827
1410, 25.951865934814805
1411, 22.211878821772643
1412, 0.8751900524628127
1413, -8.167203942229207
1414, 1.0016166291513855
1415, 29.204747115957844
1416, 45.15779663876424
1417, 38.3101890444932
1418, 6.449769715869479
1419, -12.125501398099914
1420, -6.55692783374775
1421, 3.5253911739719115
1422, 9.179716849803299
1423, 5.103334551068656
1424, 1.2597290290991623
1425, 2.5401531954980783
1426, 12.409335447734065
1427, 11.54538025632337
1428, -0.06070917796660069
1429, -9.9544556158869
1430, -9.711007995019372
1431, 1.4004436833315594
1432, 12.7290724178863
1433, 24.44156734741341
1434, 34.62884848415388
1435, 27.68209493486893
1436, 17.954947041425157
1437, 22.287137954501077
1438, 15.845969945285105
1439, 0.20885564308696303
1440, -10.312269418101778
1441, -7.719453342767565
1442, 3.797032254565238
1443, 4.7850137894602085
1444, 0.08275368116778736
1445, -6.381758541777572
1446, -10.535746088443602
1447, 3.8752412756539343
1448, 42.69161598305618
1449, 52.49385240595234
1450, 40.47776969652
1451, 27.80316720144583
1452, 27.33716968566705
1453, 29.1046745653
1454, 11.110365999149053
1455, -1.9600300999261435
1456, -4.925970988389736
1457, -3.1082109266974385
1458, 3.723559544739828
1459, 11.31295438356392
1460, 1.899734158201909
1461, -5.188520088618361
1462, -0.21597930379266472
1463, 0.20708346700689617
1464, -1.7954438646336257
1465, -1.981318947597174
1466, 2.045820583307659
1467, 14.242308238003488
1468, 35.4204532204858
1469, 35.85895616185712
1470, 19.038212217980345
1471, 4.411093981223985
1472, -3.5842593545205546
1473, -3.2324656867160684
1474, 8.001078575778592
1475, 20.409414678561234
1476, 28.70112293252373
1477, 33.505250851760366
1478, 35.80805286541454
1479, 33.096834289563276
1480, 14.455933536302155
1481, 6.237280015187935
1482, 20.122304545579254
1483, 30.6160309855793
1484, 31.61003547543828
1485, 22.165973284172424
1486, 11.903888366394312
1487, 10.758645037516771
1488, 23.51061148980807
1489, 27.585955881887912
1490, 18.20049556701929
1491, -2.2493836452297273
1492, -6.1349555697552205
1493, -0.49053549518566797
1494, -4.6859822204794455
1495, -1.5182644304945825
1496, 7.703290769040223
1497, 12.27690814193943
1498, 27.996718303092848
1499, 42.84147261863632
1500, 20.81368808333491
1501, 3.9241977988492636
1502, 1.0644130365312776
1503, -7.682888369265129
1504, -10.125075897071838
1505, -4.401087624408774
1506, -0.33117631242930656
1507, 21.946804010978212
1508, 56.65092965623626
1509, 56.63907414418645
1510, 33.10604154595376
1511, 2.5552975964276357
1512, -5.748887635486199
1513, -2.6340313529979085
1514, 1.1456408663864295
1515, -7.949626026872693
1516, -19.39928443554959
1517, -20.45578220480411
1518, 11.37028156778274
1519, 41.21270678319593
1520, 45.68368334679326
1521, 41.50744309363154
1522, 29.625023151163987
1523, 12.570399904468331
1524, 4.40532045771829
1525, 3.899102805469738
1526, 8.892451140433877
1527, 16.356852581955536
1528, 25.33480333062721
1529, 31.82487317652044
1530, 17.935604716464013
1531, 0.24560729863628694
1532, -5.902791168566182
1533, 7.672110455113625
1534, 20.617173696785585
1535, 17.783333580639464
1536, 5.218617000554559
1537, -4.305099981990679
1538, -2.5977503306926337
1539, 15.42831307507663
1540, 28.648778117916663
1541, 24.852090658409452
1542, 11.523877310231683
1543, 3.34093091160139
1544, 3.5024094801690353
1545, -7.542411531659127
1546, -17.130885253961196
1547, -16.99537062440936
1548, -5.826453881528323
1549, 10.208076903508982
1550, 23.07637955321161
1551, 19.265816997597085
1552, 16.635426679594502
1553, 20.261479196417667
1554, 19.931946469947206
1555, 12.001937273061458
1556, 0.13630156948443073
1557, -3.5985317930649217
1558, 5.87367677445468
1559, 16.511747775460663
1560, -1.0669321372138256
1561, -19.661967366250792
1562, -25.886271287512272
1563, -11.008745830639555
1564, 8.936908363056546
1565, 23.462616476261246
1566, 22.94107820452723
1567, 31.618578968873635
1568, 35.46581598628586
1569, 13.040337358423358
1570, -10.38006682243099
1571, -16.576947751226726
1572, 7.240918226588292
1573, 47.06748185067454
1574, 88.61365734499941
1575, 114.1418844490272
1576, 123.36808760797248
1577, 142.13760246623474
1578, 177.3425429451736
1579, 194.78069906773158
1580, 201.75379196634208
1581, 205.75223918490133
1582, 212.7752417464501
1583, 221.66538347020514
1584, 231.08692231036957
1585, 237.56659772826174
1586, 215.33674283188748
1587, 172.73665660564575
1588, 133.66113132230976
1589, 72.1517385498837
1590, 23.850303748854913
1591, 21.048932192834855
1592, 30.656418478583873
1593, 38.35037029058276
1594, 29.621324019663916
1595, -8.46268459809312
1596, -29.700299231309828
1597, -16.3922232311038
1598, -3.307050653082797
1599, 2.985090232713219
1600, 2.8211680931115097
1601, 2.164741035054476
1602, 17.59658032857874
1603, 30.739433369386234
1604, 6.446620240398033
1605, -17.852178108529188
1606, -27.068236100211834
1607, -15.434958197016158
1608, -1.185133560948998
1609, 0.4766718430155379
1610, -10.846563235981193
1611, -0.1163520371269442
1612, 12.157102412813856
1613, 13.543836085422527
1614, 6.135852810418328
1615, 3.6694099750131954
1616, 12.030445966142906
1617, 28.86144744845228
1618, 13.972135748886103
1619, -6.608244028765739
1620, 0.403338029444285
1621, 10.893908962564865
1622, 23.599096494091327
1623, 29.883118936483243
1624, -1.3901577303636259
1625, -13.523143460798337
1626, 1.3882686539323004
1627, 9.34133383619087
1628, 9.105580528655537
1629, 7.4988692818360505
1630, 12.752997240826971
1631, 29.507754710799873
1632, 48.18698277598219
1633, 52.98156877025008
1634, 14.352621307526306
1635, -1.7717487169147716
1636, 10.983229665841463
1637, 6.758085398854746
1638, 28.467994524144615
1639, 53.320756320764986
1640, 45.899636739108246
1641, 62.429317682958754
1642, 51.34024117727381
1643, -3.143257156417576
1644, -10.314817566491456
1645, -15.616756073524357
1646, -19.242963718665806
1647, 12.510072807672259
1648, 2.2286972792464894
1649, -11.718427256339737
1650, 14.92226882453042
##END=



