##NAMES=
##LOCALITY=
##RRUFFID=
##CHEMISTRY=
320, 23.09696647166311
321, 17.55394636795245
322, 15.763059839466223
323, 20.878344392587678
324, 34.10289592307345
325, 57.97249289141291
326, 86.42864140222082
327, 109.18204256834724
328, 124.67194652985381
329, 127.65822119423319
330, 117.07729981313605
331, 105.08120124550442
332, 98.33806697017826
333, 94.56479953057715
334, 90.87207431823481
335, 86.37488696817309
336, 78.66134826012058
337, 66.85275253175496
338, 46.36948756377387
339, 22.45090127992262
340, 19.174215298169656
341, 46.241156790274545
342, 73.70339260059154
343, 78.49862646992187
344, 68.46104968022519
345, 58.096232656947905
346, 46.7768865236867
347, 30.790446756995152
348, 15.141594644857832
349, 19.810292171463516
350, 49.82995897816363
351, 74.92840992245874
352, 80.52951958496487
353, 71.38841022092674
354, 52.888844889479515
355, 28.984371546694092
356, 9.146155516864383
357, -4.726755524568944
358, -11.139582321560738
359, -10.7782825405302
360, -9.36354912808929
361, -8.573848417501722
362, -12.423876429425945
363, -23.871279204769962
364, -31.677190761813108
365, -19.668264155514407
366, 2.714462451996951
367, 7.695565233429079
368, -3.16538392457187
369, -8.999103625525095
370, -6.822513907782195
371, 5.367172800406479
372, 29.26699495435787
373, 48.01434901773064
374, 50.35684705649874
375, 37.642022081234245
376, 11.851478277143542
377, -16.92073409839577
378, -25.534752198600472
379, -15.101337537862491
380, 3.7895306694681494
381, 29.87558545174943
382, 43.8841676926495
383, 39.40643523399558
384, 27.744299117124683
385, 16.550204934923386
386, 9.090927969820768
387, 10.890772742066474
388, 15.348601073068494
389, 6.67600657643743
390, -12.309263576742524
391, -26.631908729581482
392, -34.865474530490246
393, -34.03746884377506
394, -23.09084326751872
395, -14.1234770362571
396, -14.107043029831402
397, -17.886763947297368
398, -19.60669411602612
399, -20.691843339069237
400, -24.214055903801636
401, -28.149137787751897
402, -21.68928440178206
403, -4.918356544123526
404, 3.7236672898379766
405, 0.6846932144617313
406, 5.513066461720882
407, 28.092002178163966
408, 60.80153302985309
409, 91.83858708804473
410, 113.64668366769001
411, 112.74241769077526
412, 94.9277650052336
413, 80.25553168066472
414, 71.41708260481391
415, 82.68332312995517
416, 115.50118480739911
417, 147.02148459432647
418, 172.1929316710066
419, 183.5499943599134
420, 176.4509396712001
421, 161.51687971523825
422, 151.51650712850278
423, 144.13058774542515
424, 134.1484355138382
425, 120.55944093286962
426, 100.05441078863987
427, 73.17980171034105
428, 47.04550583753917
429, 28.116181461411543
430, 19.075654305404896
431, 20.783414914780224
432, 29.62083524618356
433, 43.80817392998506
434, 53.772871854594996
435, 50.72958814055164
436, 39.92880754924954
437, 33.94134193468744
438, 30.13563408164009
439, 15.14804129345066
440, -8.209720923361601
441, -19.631048356462998
442, -15.902553097344935
443, -8.628962766673794
444, -1.6494090399173729
445, 15.096963961239453
446, 49.63579328640844
447, 79.34015855441612
448, 77.87333703102195
449, 54.48122346428863
450, 29.532020385979195
451, 6.759794454237635
452, -1.8018272896315466
453, 2.09944959882705
454, 5.308303052395786
455, 6.068752878680243
456, 11.567935644050522
457, 24.477970674404787
458, 31.761321350022627
459, 26.751532073225462
460, 16.484544026869116
461, 7.883847033972415
462, -1.404622311674757
463, -17.73244506485935
464, -35.92142388041066
465, -37.844051064041196
466, -25.318212238535125
467, -11.259759630795088
468, 3.038759724864576
469, 11.774138448816302
470, 12.875266370579993
471, 5.8045573287854495
472, -9.492997813109469
473, -17.958406191535687
474, -9.818632506965514
475, 1.039376803651976
476, -1.1681360901711741
477, -9.092734686815675
478, -8.968599452045964
479, -2.9978832623291964
480, 1.3940385542991862
481, 4.83276491644574
482, 11.61124698752792
483, 20.813792695207667
484, 23.128097592969425
485, 16.6479418418985
486, 9.150589226894226
487, 3.764185898777214
488, 4.398670434342421
489, 13.363945429764499
490, 18.961127192560525
491, 9.258741655799895
492, -6.195651850102877
493, -11.450665700947866
494, -9.179774107386038
495, -5.848926521932299
496, -3.055371132424625
497, -7.267246810912184
498, -18.088949172977664
499, -24.892846642122095
500, -26.01724249718609
501, -21.623114001573413
502, -11.358162932350751
503, 3.248062982074771
504, 22.351987915048085
505, 35.937771678407444
506, 36.469247673261634
507, 31.14092637764952
508, 32.15854179575763
509, 43.25707703035005
510, 72.6338655061736
511, 118.17776253583725
512, 156.90886878177662
513, 187.81186852082647
514, 211.09197024096466
515, 226.94565493027403
516, 236.65945316115176
517, 240.68759177425272
518, 241.6104696956445
519, 239.75723245986592
520, 219.77097262571078
521, 174.46123209396865
522, 121.64725883493702
523, 74.12529437980993
524, 41.726894835685016
525, 23.92683635674439
526, 16.221268372042687
527, 13.18746295238634
528, 11.802288406473963
529, 5.263364280866881
530, -4.350814940071359
531, -6.610474820208765
532, -2.556679826693653
533, -2.46117342063917
534, -7.15800593865788
535, -9.628084277470407
536, -8.602626527761458
537, -8.443812467587122
538, -10.554295502608511
539, -9.62847456651616
540, -2.8203971662915137
541, 2.519684904227688
542, 0.9939554113989288
543, -3.009195676777381
544, -4.857137601926297
545, 2.575765093906739
546, 31.911213268713254
547, 74.21513652217982
548, 98.3910251263078
549, 105.94687485167924
550, 105.55393302634366
551, 99.02797480507616
552, 91.73375346846296
553, 85.17671049911041
554, 85.07574603785724
555, 89.96965089923287
556, 71.46401966109806
557, 23.72334820463948
558, -11.06545840561921
559, -21.068601397188104
560, -11.91914959938913
561, 14.702738926098391
562, 39.19833888544963
563, 43.35181466274116
564, 34.85870591587991
565, 22.018214484309283
566, 9.354925718997038
567, 4.67472760657256
568, 6.964285753268996
569, 15.165849107903341
570, 21.652474504457132
571, 6.892674840881227
572, -20.190872640036105
573, -25.910547067180232
574, -12.848969113389103
575, -9.76537204759552
576, -17.523401876222124
577, -12.005966126214844
578, 10.003919847282305
579, 21.041295006232758
580, 14.188468639658822
581, 11.787830848921658
582, 23.02098483251575
583, 30.579439177810855
584, 26.440765447981903
585, 17.388458920007906
586, 7.948184076438338
587, 4.685557211330888
588, 12.453171134195145
589, 19.544422661483623
590, 12.228159398942807
591, -0.3165157555049518
592, -3.1888888587582187
593, -1.5820987608349242
594, -6.140983554261766
595, -11.545482556688512
596, -1.5815244680979959
597, 17.57352401359458
598, 17.31120995040328
599, -0.2698345786175196
600, -13.904098258224622
601, -21.586692380433306
602, -19.747471741984555
603, -9.271022431919846
604, -3.938292580711277
605, -5.850484920731105
606, -7.655504384860251
607, -7.846626309265048
608, -14.344872477662648
609, -29.87448629195933
610, -34.257082970096235
611, -18.62436696089935
612, -11.525423618033528
613, -29.210363715979838
614, -43.7428135790542
615, -35.29169152544637
616, -22.949557518388247
617, -23.626479258895415
618, -25.77607695448387
619, -16.10700799080587
620, -4.493527461434496
621, -5.614573196869969
622, -10.722661033569238
623, -4.118444074112631
624, 11.445016295001551
625, 29.26487717699092
626, 48.11057107619672
627, 62.57091021318047
628, 79.18360772270171
629, 117.53914549327601
630, 178.84797165657983
631, 235.42775066348077
632, 286.2279103090277
633, 334.11331121637886
634, 379.6027037665008
635, 423.5271741439028
636, 465.22204663271077
637, 498.77260926498093
638, 521.7916113799038
639, 523.2262354260474
640, 501.599631920335
641, 471.3919608040287
642, 438.0123898237525
643, 420.258201725499
644, 422.9272602227011
645, 410.54846114967404
646, 369.3463277849878
647, 315.8782139971536
648, 258.06776902913407
649, 201.18566201973772
650, 148.19530280796425
651, 119.26610368650108
652, 114.84321627767531
653, 105.82380003792423
654, 79.40324225398217
655, 47.98613481907705
656, 27.173924311462542
657, 10.559649583365172
658, -7.926921546344602
659, -26.52810439037603
660, -42.83355060579379
661, -53.52604126309234
662, -52.93924778535984
663, -46.35598581170234
664, -41.47331078610114
665, -37.56958411896994
666, -33.67752716132236
667, -33.432087112065346
668, -44.79318395769951
669, -58.41509798640982
670, -51.973643286833976
671, -31.568823242752842
672, -13.91557796107736
673, 1.0310090713646787
674, 12.423038731996712
675, 26.07584343601775
676, 57.92127375973723
677, 110.18873357971643
678, 181.56463110134246
679, 259.0621744952459
680, 337.4130091041716
681, 407.1125743480243
682, 431.83196004225647
683, 417.41086651882324
684, 406.44771023115027
685, 396.9820601989104
686, 355.3637720060906
687, 283.88312620613215
688, 217.67691043517698
689, 159.317693880952
690, 94.54772041879914
691, 34.40136444977725
692, -3.596589146387487
693, -21.398051784664858
694, -35.233372936612795
695, -48.015766444048495
696, -52.865705097277896
697, -48.21506775911439
698, -30.168754722046287
699, 0.976635668961535
700, 24.984685061843265
701, 36.39117929465101
702, 33.66364411675022
703, 17.453606481989482
704, -1.035998121897137
705, -19.515260888365447
706, -21.815646772509353
707, -4.679289527453875
708, 21.855076704150633
709, 57.223233414400966
710, 103.90699185561243
711, 165.18373428137966
712, 218.09046133619813
713, 259.74173839143623
714, 298.14375947948974
715, 336.0820164016368
716, 379.2000072685205
717, 428.0258967402333
718, 468.12784413952795
719, 495.59824421876147
720, 516.161443313953
721, 531.3857585312526
722, 538.9214452048163
723, 538.3940289402854
724, 534.3909972302718
725, 527.2296124817913
726, 502.42547611060763
727, 456.74021904912115
728, 406.46422937305215
729, 356.3105332865525
730, 302.2264002762786
731, 243.18166281806043
732, 181.8495024507829
733, 119.75620578588496
734, 77.74957721186183
735, 53.51622409619995
736, 35.594448152964105
737, 18.79832249815263
738, -7.249004926970883
739, -45.03702390700164
740, -69.52939098623756
741, -75.87904646274364
742, -71.91105649223755
743, -58.233666395803084
744, -24.20799963932768
745, 33.83916545136526
746, 101.29738690501654
747, 178.72838206376582
748, 246.11267232195314
749, 300.1715549022392
750, 333.0618355495226
751, 343.3785773164054
752, 333.98016455549805
753, 307.9828056158749
754, 283.7302438177703
755, 260.937195952456
756, 212.61459154886143
757, 138.71214758377755
758, 70.87289862319813
759, 22.32231125403996
760, -8.337783588378443
761, -23.48601345057068
762, -23.907866153102077
763, -13.653043862475897
764, -12.011211861427
765, -18.17254630081152
766, -17.398519994296294
767, -10.78240241029016
768, -10.280036628417292
769, -14.39759621376652
770, -12.878580701983083
771, -8.407509976501387
772, -13.850677036740308
773, -24.616355876987654
774, -22.216150324205955
775, -13.663053883086832
776, -22.639883864092553
777, -42.01242131661638
778, -49.38490469529643
779, -47.986578710721005
780, -46.183083078603886
781, -41.424907894892385
782, -27.666682997522003
783, -9.641176666991669
784, 2.9367590971942263
785, 15.150778934856135
786, 34.842695067245586
787, 50.63258549469174
788, 48.26971867226712
789, 36.234365913222064
790, 28.889180502175805
791, 34.09712875049445
792, 61.63570362640894
793, 108.80906038574904
794, 175.243210294253
795, 238.96022076482586
796, 291.07292085441077
797, 322.221327880814
798, 326.40149247021327
799, 326.1580441456972
800, 334.1795003318257
801, 330.99909861804736
802, 307.31618877426445
803, 275.752847168038
804, 241.7703768917945
805, 205.5007700293554
806, 166.86397389298145
807, 124.13193985542966
808, 77.99830038957043
809, 49.09262194123039
810, 36.565846063545905
811, 28.052521366465953
812, 20.547981976294977
813, 15.315717944031348
814, 11.382755067794278
815, 3.9814812091299245
816, -6.266988600438708
817, -11.58123170721774
818, -8.21487284909017
819, 15.878545649031366
820, 47.417989796040274
821, 41.27712043358042
822, 9.500927648447032
823, -10.045485709542845
824, -20.663319920122376
825, -29.539417958876584
826, -27.902263203843177
827, 0.5918392969306296
828, 34.19753525296619
829, 39.893847184443075
830, 27.829534736252754
831, 8.877730690779572
832, -6.00504446193554
833, -9.92573216456367
834, 3.2463540992193884
835, 38.338361975991575
836, 63.674240603184444
837, 63.37704457120162
838, 49.52536119444085
839, 27.662836302006326
840, 5.108041132738435
841, -14.054030354574934
842, -20.0700779594099
843, -13.545774673511914
844, -16.64519156428105
845, -31.20815640971159
846, -41.293042406523455
847, -45.4156307643334
848, -44.81274716747794
849, -38.721414680740054
850, -23.90857950449208
851, -3.612510764716717
852, 11.592482837970238
853, 27.75396067564543
854, 56.70193333483621
855, 96.0194620834136
856, 141.1337945220821
857, 188.23386759409732
858, 244.0334041116712
859, 296.4348190491073
860, 335.1159224123676
861, 351.6111668471967
862, 341.1968842205315
863, 323.80898666624125
864, 309.0119120543641
865, 297.32897630704974
866, 288.0134692639367
867, 270.9840471701573
868, 241.89218287303083
869, 189.01451266226286
870, 117.80758589553261
871, 80.34568733224842
872, 74.86270536972552
873, 86.6545187799693
874, 97.6613343536228
875, 82.28697513858424
876, 47.28814877275363
877, 9.633706434206033
878, -16.89995281630945
879, -16.46244011045019
880, -4.804956920841505
881, 2.0721578242282703
882, 2.9833945615137054
883, -3.2304391850248066
884, -9.964765764709227
885, -13.869739358358856
886, -13.192597893747006
887, -7.60367644908365
888, -3.1835222046574927
889, -1.843588247355001
890, -6.891489308305609
891, -17.08250819513887
892, -21.48004199681236
893, -21.333982187099537
894, -24.929334274322173
895, -31.572173831485998
896, -37.66192370420504
897, -39.45865171452533
898, -29.9700142828151
899, -15.613625119667631
900, -3.8780427929141297
901, 12.084651534138175
902, 38.160032425910686
903, 60.36335070513087
904, 71.75977773101295
905, 74.45767772669205
906, 68.74908652369959
907, 49.22061426984328
908, 17.93200087103287
909, -0.848059659525461
910, -3.084384709070946
911, 19.077137755186413
912, 56.64549524160611
913, 72.91012163762753
914, 73.72304062816693
915, 74.859823116607
916, 75.08553751454019
917, 72.21342823211671
918, 67.61197907268433
919, 62.45502111865244
920, 56.45995038847104
921, 49.887248639230165
922, 55.715021257738044
923, 70.9628159988988
924, 85.49330852209641
925, 94.1144189561328
926, 81.5021107521934
927, 51.72117445281765
928, 29.377507989998776
929, 18.577225710398125
930, 15.310629490451902
931, 18.57152463806051
932, 27.799693123259203
933, 35.710822186207224
934, 36.71374302031654
935, 34.19911608824259
936, 30.716318613085605
937, 37.33877111235233
938, 53.06561979006801
939, 63.32874928261663
940, 64.30135226592029
941, 57.13099614959083
942, 42.725469075651745
943, 23.7981721710903
944, 9.121515145450758
945, 12.200737686019238
946, 23.959357484789507
947, 27.473400418728488
948, 21.38027107761536
949, 4.788374292333174
950, -8.219275301789821
951, -11.065518798003723
952, -5.548001988301621
953, 6.527382824864617
954, 10.805606864167203
955, 6.268576038040919
956, 9.478923011080042
957, 20.734241977761485
958, 32.50487553066523
959, 43.537175134389145
960, 52.31359800482096
961, 46.5896647057416
962, 12.692755111077531
963, -18.483339492780033
964, -30.402977959485725
965, -29.2815005498378
966, -17.713893904323413
967, -0.7357974751439542
968, 17.2184861706628
969, 12.286901798473082
970, -11.40770125110248
971, -31.528012076061714
972, -40.360101400281565
973, -23.617628378296104
974, 3.3067405381470962
975, 23.74736405040312
976, 31.814788336648235
977, 24.338098506668757
978, 7.770433731960111
979, -11.5136015682383
980, -9.24922473438437
981, 11.950601297531648
982, 13.824945300513718
983, -1.567842665441276
984, -16.427268433861173
985, -27.18536552972364
986, -28.55028078383748
987, -22.249657287989066
988, -9.456941230992925
989, -1.711676212713428
990, -4.298684302033507
991, -14.001594767794813
992, -27.777377143665944
993, -29.62910223691142
994, -20.058608021526197
995, -8.096503740185653
996, 10.03166623902598
997, 42.34191731025476
998, 68.66531688636678
999, 69.35574807739158
1000, 59.18269210374183
1001, 46.94340555743929
1002, 38.84955395790257
1003, 36.17595567180979
1004, 34.24503054040633
1005, 31.289948170548996
1006, 24.090608735998103
1007, 18.71336380035973
1008, 22.229345354945508
1009, 32.37276102305623
1010, 47.24825489810155
1011, 66.28448524270607
1012, 89.65958875911019
1013, 99.60328830892195
1014, 92.02967530060323
1015, 75.9327749891363
1016, 55.595955056718594
1017, 39.8789482013799
1018, 37.50070487388348
1019, 55.36904714904813
1020, 71.71299987013936
1021, 70.40362214232755
1022, 69.28945146078604
1023, 76.15966364244196
1024, 81.43732776403158
1025, 81.80006607048108
1026, 73.44925234565562
1027, 58.633341388223016
1028, 44.4622691085533
1029, 38.15337108847325
1030, 42.38684433754406
1031, 55.278914312119014
1032, 70.42605885317971
1033, 78.02010206617342
1034, 76.49204010336507
1035, 80.18243835087378
1036, 88.24091326984853
1037, 88.20783445179859
1038, 86.12032501419617
1039, 94.93159534913684
1040, 96.83052551519086
1041, 76.20046994258246
1042, 60.63211465029508
1043, 60.47326614521353
1044, 52.454322396010866
1045, 33.91294699631726
1046, 17.47310339647629
1047, 3.793117735355736
1048, -13.968921252420841
1049, -28.292087661428013
1050, -30.31767393706923
1051, -25.38159353181709
1052, -16.967677022097632
1053, -17.628013516523424
1054, -26.510806781499923
1055, -22.77144194464654
1056, -14.409252157222
1057, -27.036812623524384
1058, -45.540059739896606
1059, -51.25604717498754
1060, -49.74038661753275
1061, -43.27896019706168
1062, -26.940024395895307
1063, -2.9361808996491163
1064, 7.024110810747516
1065, 8.53570367721477
1066, 19.84075129883604
1067, 53.242903550001756
1068, 123.70393066497672
1069, 226.9259744972087
1070, 364.4277935821683
1071, 485.6572016982027
1072, 584.772946542198
1073, 668.2382364928744
1074, 733.6462955986017
1075, 774.3452492201504
1076, 793.9146047309905
1077, 795.8508237094238
1078, 772.8152796413051
1079, 721.8769687903132
1080, 646.8711992390836
1081, 549.2669880896483
1082, 431.284083764589
1083, 302.6211642151411
1084, 179.69906545791036
1085, 87.94646425353585
1086, 23.40435848204652
1087, -25.70732849693195
1088, -63.43181955044747
1089, -76.55453448440312
1090, -66.38945719947787
1091, -39.60545120605639
1092, -14.119663570121702
1093, -12.673326975595955
1094, -17.948946496810095
1095, -19.47608810661859
1096, -3.7683315030335507
1097, 28.21108873434423
1098, 51.93494840327094
1099, 62.930117149784564
1100, 57.80975960467367
1101, 48.17860953159925
1102, 43.13560624517595
1103, 33.44507442349368
1104, 16.17456598703393
1105, -3.991201302668742
1106, -20.619170442397262
1107, -14.707805873073085
1108, -0.715563620424291
1109, 3.917489017943808
1110, -2.9546007008748347
1111, -21.292749004388497
1112, -36.12461098812037
1113, -41.46915095933673
1114, -25.332197813385392
1115, -3.058211615014443
1116, 0.5327861376108558
1117, 5.721162320414805
1118, 23.96849620829107
1119, 33.93143802855593
1120, 32.8352281945954
1121, 33.50767997114781
1122, 28.03156997953738
1123, -0.5874704543739426
1124, -17.9019555106006
1125, -1.05697123560185
1126, 24.597532974818932
1127, 54.90836410825159
1128, 98.19638418165232
1129, 133.05696726453334
1130, 111.80621751478066
1131, 75.09675059730216
1132, 58.3551891704501
1133, 54.67143192445474
1134, 62.08822602055079
1135, 97.69731845996557
1136, 143.40340933665902
1137, 167.20898481241056
1138, 178.57962408888488
1139, 187.39918923388632
1140, 196.90717989486802
1141, 205.49406126836766
1142, 197.56419376738359
1143, 174.45487418651464
1144, 144.5509418678921
1145, 105.2449410363788
1146, 55.10371691175624
1147, 21.673188057385232
1148, 9.228720891298508
1149, 13.523270752794815
1150, 22.61163401217891
1151, 9.512353052937215
1152, -5.666755772677789
1153, -8.656214750994877
1154, -16.6512742993973
1155, -29.553186592675956
1156, -16.783893381261805
1157, 6.221901135763801
1158, 1.0962762114631914
1159, -6.993005841377453
1160, -1.8300904651523524
1161, -9.880312962586686
1162, -31.27443104474696
1163, -32.92380229892842
1164, -22.62386339150362
1165, -17.709284504899188
1166, -12.067238966250443
1167, -3.519626710468401
1168, -9.389681975740132
1169, -30.801786972687296
1170, -57.30271618374809
1171, -69.83870907150958
1172, -44.079752148057196
1173, -8.43430313385943
1174, 24.36523268540259
1175, 47.80556781637915
1176, 53.8561156498763
1177, 33.15410612623418
1178, 28.7368393434881
1179, 74.93706550762909
1180, 136.04488210608906
1181, 207.29882913677739
1182, 290.8177895569079
1183, 371.42854704413
1184, 418.85324156230945
1185, 448.8219994506835
1186, 470.41854225953466
1187, 471.11986961391176
1188, 451.33331668938627
1189, 421.9431622837319
1190, 375.3115158904293
1191, 302.0843758361043
1192, 216.45123336185043
1193, 126.61403740430796
1194, 57.178681666543525
1195, 6.603021842165617
1196, -22.973174310648574
1197, -41.28113107192621
1198, -54.36070360973281
1199, -55.23721455283339
1200, -46.52093013443209
1201, -43.064202300104625
1202, -35.16158586826532
1203, -9.824831522904788
1204, 16.769562356328606
1205, 40.50348086581653
1206, 66.4232386323929
1207, 80.60651370889354
1208, 54.299160158627274
1209, 13.168905387916311
1210, -21.239577720863053
1211, -27.806938898718727
1212, -6.581870031711333
1213, 28.957411649495953
1214, 58.93578999254987
1215, 63.09498972800975
1216, 40.487731759460075
1217, 0.4672511226381175
1218, -14.813427438359213
1219, -8.5929345916702
1220, 9.185241349737225
1221, 25.814894925855697
1222, 30.643352047126427
1223, 8.640276796781109
1224, -26.01876880202235
1225, -42.062821994713886
1226, -43.007985419677425
1227, -32.238026598840406
1228, -18.841535839936114
1229, -4.8329936230666135
1230, 8.832196698606822
1231, 25.676201515498178
1232, 48.95078235100482
1233, 70.04258667546401
1234, 84.26880844611787
1235, 115.12205998501759
1236, 151.67715690429213
1237, 188.2920909821314
1238, 217.17224479022116
1239, 237.3028655996859
1240, 260.3414009398057
1241, 281.4734091878772
1242, 289.98972668948045
1243, 290.6186094680006
1244, 287.0343384862399
1245, 285.9422607518163
1246, 283.55110046998925
1247, 269.78500352279116
1248, 255.1420833781931
1249, 243.86459766268126
1250, 214.61416541939707
1251, 176.30857941052
1252, 161.29416097055582
1253, 142.29347958096696
1254, 100.81108297045193
1255, 66.99201783769968
1256, 50.21265652916827
1257, 35.63136689034218
1258, 28.747977115554022
1259, 33.65871516655989
1260, 27.07954090694966
1261, 6.916525373284458
1262, -15.356037617742004
1263, -26.78393902305197
1264, -16.880350601854843
1265, -10.084031347903874
1266, -12.01418920397009
1267, -18.614341840489033
1268, -23.610503697905187
1269, -20.26406526521896
1270, -0.45290846672014595
1271, 30.01853878280508
1272, 37.18184782773642
1273, 36.618368418747195
1274, 45.65033897991816
1275, 43.372306968722114
1276, 32.5712957533533
1277, 47.71064125996054
1278, 61.554423668711934
1279, 49.62531632259106
1280, 43.73229078049917
1281, 54.611449214850836
1282, 66.78743659990141
1283, 81.88785600393203
1284, 99.95471860922316
1285, 92.99880240866514
1286, 63.779325405111194
1287, 45.13273583271075
1288, 45.27012155401644
1289, 64.60872520834619
1290, 89.13913750683605
1291, 104.02885438446901
1292, 75.94419969295723
1293, 50.2634030854706
1294, 63.99620341141781
1295, 67.02716742690154
1296, 64.10298950412562
1297, 91.4118273268823
1298, 97.2886211932173
1299, 55.634660503794294
1300, 37.76770721413686
1301, 42.11357983576636
1302, 25.80760675500278
1303, 24.10499561216966
1304, 48.07163851449059
1305, 49.709700972573046
1306, 35.48506596772222
1307, 28.20439271711166
1308, 21.59568376685729
1309, 14.997169479902368
1310, 20.74290652502532
1311, 22.155796250660387
1312, -0.6727840902594835
1313, -17.225624232190967
1314, -21.105300888038983
1315, -23.366903287716013
1316, -23.10172399721705
1317, -19.313653930131295
1318, -23.118947711654982
1319, -28.04147725396433
1320, -8.341560487093375
1321, 10.6017567561521
1322, 11.457124501156613
1323, 10.63622253354879
1324, 7.589485162072378
1325, -4.72827334658723
1326, -14.980131450682165
1327, -18.944944753312484
1328, -21.23745325955133
1329, -18.06133415495424
1330, -4.029323618094168
1331, 3.290160090504287
1332, 0.6784015715411442
1333, -1.2927887861842464
1334, 0.023704755893959373
1335, 5.092687570342605
1336, 0.8427785369458434
1337, -8.703375408556894
1338, -8.993764926168296
1339, -12.186904518851406
1340, -21.546286142852296
1341, -14.73994704494271
1342, 0.9245224308797333
1343, 10.521868628102311
1344, 13.003991699362814
1345, 9.191003320283926
1346, 2.829477976802991
1347, 3.4978575983177507
1348, 16.71624374977273
1349, 23.259359195316392
1350, 17.362778663414247
1351, -3.1922634411057516
1352, -6.14201458113439
1353, 16.9609423630709
1354, 32.04885677929815
1355, 41.456214993434514
1356, 54.254535752503216
1357, 56.032966356537145
1358, 48.041956165326155
1359, 44.843338457053505
1360, 29.121960448765094
1361, -3.938395210073395
1362, -13.691273366441237
1363, -3.5606082866370343
1364, 13.579255009524786
1365, 34.867418688163525
1366, 48.97456218565185
1367, 29.90447668028537
1368, 9.534094592260772
1369, 11.670957743032886
1370, 16.50992524999583
1371, 17.79168875266805
1372, 13.566413055615158
1373, 7.486066622782346
1374, 4.236047202672125
1375, 11.814019483057564
1376, 17.745399512128643
1377, 14.522663317673505
1378, 25.60208440676979
1379, 52.33374450270912
1380, 83.47855123864792
1381, 99.94791114543204
1382, 97.06290576189167
1383, 84.82362276148433
1384, 78.35793662686865
1385, 83.75059041102213
1386, 64.60005028973956
1387, 29.57366932698187
1388, 6.953303364743078
1389, -3.2270997326631914
1390, -1.6762151654938862
1391, 10.404093086829562
1392, 22.49993197979802
1393, 26.883544111093215
1394, 32.1999833169275
1395, 35.868442840333955
1396, 31.092433761792563
1397, 0.6050129272180129
1398, -39.46592747699469
1399, -39.34391118267558
1400, -26.34297697083366
1401, -15.704138401302771
1402, -4.13770211434894
1403, -0.33267781169070076
1404, -12.099748015997648
1405, -17.227615245745255
1406, -12.127546278151385
1407, 0.09320445302637381
1408, 5.257900787883955
1409, 5.403285119048633
1410, 27.050494505701863
1411, 33.83812717744422
1412, 7.8935383639955035
1413, 9.637617915750525
1414, 23.278410428483767
1415, 16.87991282649091
1416, 28.023947842068992
1417, 46.291826750004475
1418, 25.10539931650419
1419, 2.379832104072193
1420, -8.807473430428217
1421, -32.62925082538277
1422, -46.39114996870103
1423, -34.92551325265049
1424, -30.089731873725214
1425, -30.02814737753033
1426, -25.124156547646635
1427, -16.56545247549093
1428, -7.839497022521755
1429, -6.444978876750611
1430, -11.281185244355584
1431, -17.94240731825812
1432, -12.24414454885482
1433, 11.233188155118114
1434, 52.11624406006649
1435, 85.26605378008753
1436, 112.3922895603564
1437, 144.75218520094677
1438, 163.76589604340097
1439, 167.4938999443184
1440, 161.4702560061014
1441, 160.87581444568423
1442, 168.82093148406602
1443, 178.13364595349412
1444, 163.9918499858968
1445, 121.90960758652818
1446, 87.53181860235782
1447, 87.4122978315554
1448, 126.30366067332488
1449, 154.9499060049866
1450, 147.0397325895401
1451, 85.96646531259194
1452, 42.80550534573922
1453, 27.613352114441113
1454, 18.41548672978206
1455, 26.972607034146677
1456, 46.23615888651602
1457, 43.3439638003656
1458, 60.5181004154565
1459, 94.72832494273462
1460, 83.89235170172833
1461, 65.87451273905208
1462, 74.78827355550038
1463, 102.9027712072675
1464, 155.45227031174818
1465, 220.98581988540718
1466, 269.0652753901095
1467, 301.7397178233605
1468, 329.304799361772
1469, 353.54202854290634
1470, 357.5958636025789
1471, 313.98690061476464
1472, 261.96565528853625
1473, 218.87486381877352
1474, 193.84102860431085
1475, 184.49784399127384
1476, 173.28311147428667
1477, 113.5583163749643
1478, 43.36082988820817
1479, -3.378776334153372
1480, -5.238696638000874
1481, 13.48323107777469
1482, 30.537251486902278
1483, 17.583132170430872
1484, -8.429279718657199
1485, -30.144573875814785
1486, -27.267203008087563
1487, -15.375508354147314
1488, -14.633530238646927
1489, -25.925661890982155
1490, -35.48098123944328
1491, -26.399400730799243
1492, -18.778689733187093
1493, -19.169182664047185
1494, -30.009383542925207
1495, -40.07283262204692
1496, -40.691018302360135
1497, -21.74491482203939
1498, 0.215792926348513
1499, 21.121484784104723
1500, 40.2581480673407
1501, 42.64816427814094
1502, 32.7219850290885
1503, 34.73678359748192
1504, 29.126121601526393
1505, 16.780390585660825
1506, 25.663212866766116
1507, 21.280639178197816
1508, 3.3644293925017337
1509, 21.39468268264045
1510, 36.65113450087756
1511, 30.928808754557394
1512, 17.989335043437677
1513, -2.950434127709741
1514, -24.506764531992303
1515, -17.60355369334775
1516, 0.30161758248596016
1517, 14.19828601197878
1518, 9.776837316886485
1519, 5.442529144901528
1520, 9.300741003924486
1521, -0.7880973744831863
1522, -4.454406149604438
1523, 5.146315133183634
1524, -5.241959025739561
1525, -4.018469544149411
1526, 21.971988628135477
1527, 20.399567788241256
1528, 17.15264897655379
1529, 26.26615683200089
1530, 11.442953150471112
1531, -6.742211938721084
1532, -12.50762252378172
1533, -10.82149683865373
1534, -2.2359938028130273
1535, 13.695114651262884
1536, 35.85514354523821
1537, 31.44897046646929
1538, -6.177348142619849
1539, -16.747806186700473
1540, -10.59642386975247
1541, 3.9379065554257977
1542, 31.772436126031607
1543, 29.769981345737506
1544, -5.375482730609292
1545, 5.639175205476022
1546, 23.129942015925735
1547, 24.450497132831515
1548, 25.419929970349585
1549, 11.120459891679275
1550, -6.710949187212464
1551, 24.3700836669841
1552, 42.236304157662744
1553, 26.519141036123983
1554, 6.596288355749493
1555, -13.09670596435626
1556, -26.972229159937342
1557, -22.172512836498754
1558, -24.423068370359942
1559, -32.94262934506423
1560, -26.714679822115613
1561, -18.201138125707075
1562, -16.57538760681564
1563, -29.257147015267037
1564, -31.207248718259507
1565, -17.496421153968186
1566, 7.6745618396480495
1567, 27.48952283888775
1568, 34.87748129931424
1569, 31.74187383591743
1570, 65.74469402247269
1571, 137.35507963705913
1572, 237.04629728918917
1573, 327.5909456562058
1574, 413.4273775368956
1575, 496.54096804401433
1576, 557.0659612962527
1577, 595.8435681204046
1578, 606.416700605083
1579, 560.3382107277421
1580, 496.0189123897426
1581, 426.14157576748676
1582, 329.07904638419586
1583, 231.65678543664853
1584, 144.2160649673533
1585, 79.52133769683041
1586, 38.42106649368452
1587, 9.984830399862403
1588, -21.16222933175868
1589, -36.72439298320023
1590, -37.53808563327493
1591, -31.468984152316807
1592, -32.909775687888214
1593, -34.0383819726876
1594, -24.81342185579524
1595, -0.6512646900819163
1596, 25.959508017944245
1597, 41.802219303475795
1598, 36.38384539612525
1599, 34.47518356291948
1600, 43.04632036097337
1601, 49.626231380544596
1602, 37.697928392735776
1603, 14.356376911134248
1604, 3.241288837933098
1605, 16.398503376541157
1606, 44.42024079114708
1607, 66.60589261877976
1608, 64.54971339482563
1609, 55.47846242223841
1610, 51.06488243920376
1611, 37.81752068575497
1612, 21.876803525007745
1613, 16.785503618988514
1614, 39.09253587345938
1615, 55.40708695446756
1616, 46.32781257708302
1617, 3.562125506652592
1618, -26.716777410385475
1619, -22.272384458743545
1620, 19.20600098082923
1621, 26.45806222025203
1622, 13.66229193675099
1623, 5.472219685579148
1624, 20.993518887373284
1625, 35.62045842684256
1626, 30.117759814434976
1627, -7.83818990009695
1628, -30.728919711055823
1629, -29.734685266707856
1630, -12.262506416332144
1631, -2.306239822532916
1632, 8.382751402193207
1633, 28.07267654901898
1634, 49.235742460744405
1635, 53.2992980308336
1636, 38.71998083828112
1637, 22.206330081095075
1638, 26.20676685021408
1639, 40.25493853932949
1640, 43.649878165782866
1641, 20.246347519975643
1642, -3.3736962845732705
1643, -11.109997007313723
1644, -18.737420865005333
1645, -13.199228165895875
1646, -2.8250024436611056
1647, -11.717681320476004
1648, -3.6563101733536314
1649, 0.3754477334978219
1650, -27.27600246669681
##END=



