##NAMES=
##LOCALITY=
##RRUFFID=
##CHEMISTRY=
320, 51.52978146187161
321, 54.16035999562337
322, 52.556481143052224
323, 44.189711371813246
324, 31.299888871339135
325, 17.818959456892117
326, 7.458365129188678
327, 6.336898128676694
328, 13.764195280064087
329, 18.01129356887577
330, 16.70621372586902
331, 26.053258061316228
332, 55.95040252983563
333, 85.95617095141642
334, 93.49974354358346
335, 86.88654706598936
336, 89.21278214738231
337, 97.59281069330609
338, 85.88238976922912
339, 51.55063968597278
340, 37.1969517464986
341, 55.61040805815719
342, 77.50258615023085
343, 81.8371770185222
344, 75.2245579814662
345, 69.90431960816568
346, 63.713817817581
347, 47.13030585958586
348, 20.936983382329345
349, 3.5858875514459214
350, -2.566088777823097
351, 4.846903206396746
352, 28.103322735934853
353, 48.36368196167314
354, 44.847125921391125
355, 26.750470842785944
356, 16.181544591570855
357, 10.556002688441367
358, -7.004469531208088
359, -37.864258378311206
360, -47.75212254967846
361, -26.61575972823084
362, -5.755911230320635
363, -4.082106608362665
364, -7.8620329788409435
365, 1.0960158079360554
366, 16.043625859738313
367, 15.210052673721293
368, 0.5885386321388069
369, -8.530513460889779
370, -9.70387430959272
371, 0.41297869319896563
372, 23.87886971758053
373, 43.51936977756304
374, 47.525548434339726
375, 39.41609474087636
376, 24.365389509415763
377, 6.0378649980375485
378, -4.372826642049404
379, -7.568358461759999
380, -5.942733749981926
381, -0.24291428473225096
382, 1.26234863184618
383, -4.24660196746845
384, -8.942152351355617
385, -7.6210986988862714
386, -2.4906915942592605
387, 3.6574084827752813
388, 8.42434826495446
389, 4.5728041983129515
390, -6.838649368617553
391, -18.3569377661006
392, -29.5002104077721
393, -36.17780086540006
394, -37.50925752261901
395, -38.039489705837696
396, -40.45267580734253
397, -38.666022652530955
398, -24.847396492294138
399, -4.915953190597065
400, 5.991831019075107
401, 8.50588438196246
402, 6.4145286532984755
403, 1.425033060959322
404, -1.0808547160340822
405, 0.279412670446618
406, 10.470647346659462
407, 32.79488011088324
408, 59.390602949357344
409, 77.7899721959293
410, 86.65493052938291
411, 83.59791558681718
412, 75.5274357444905
413, 92.98757672513057
414, 136.02498909692076
415, 172.71324940484556
416, 199.25853749133603
417, 219.42754952545874
418, 234.43509666874888
419, 239.4692796854979
420, 231.53827530162198
421, 220.80126264403953
422, 219.47159887934504
423, 221.13532043371197
424, 211.48839300106738
425, 195.3883627842406
426, 194.5485814241856
427, 207.73740797518622
428, 206.99195070420683
429, 186.7097910261109
430, 155.29694448258488
431, 116.05482399381253
432, 70.18693736090972
433, 25.558158820884273
434, -8.451027007917219
435, -16.853619036541204
436, -8.138226076835053
437, 0.19741399926533632
438, 7.332508157755001
439, 10.3042285527481
440, 9.178209026073091
441, 5.299512512578076
442, -0.8644581780827139
443, 0.6458593116221891
444, 14.003915191324268
445, 31.071799258523242
446, 44.022989565764874
447, 49.52259488245181
448, 43.411310018249424
449, 29.28750091299844
450, 15.03863967817233
451, 4.322127869472752
452, 3.125134674497531
453, 11.151408778290715
454, 23.36643807286964
455, 37.12862476522423
456, 46.23648923032488
457, 48.59345745776773
458, 42.01384451445847
459, 25.271281245595674
460, 2.7665180296335166
461, -20.893204839256214
462, -36.2561733983639
463, -24.464706394968744
464, 2.943013081290701
465, 10.936382200876324
466, 1.07526138123103
467, -5.709146345330737
468, -8.156691245620095
469, -14.416451932245764
470, -25.959995934654216
471, -21.57385780048753
472, 7.867237770853535
473, 35.99831836978046
474, 42.585128813250776
475, 36.224001717870124
476, 26.778796182055885
477, 12.584303906805872
478, -8.317665581380425
479, -30.823030766872762
480, -34.51738892013418
481, -21.373802275718845
482, -6.8031809617896215
483, 8.433027847971971
484, 27.418823884167068
485, 48.965082790697124
486, 58.06761198026834
487, 48.9987623785546
488, 40.163849215481605
489, 43.264507658663206
490, 45.12213843414247
491, 31.77093431227695
492, 11.615225412524524
493, 0.40520994081634854
494, -5.120610963598665
495, -12.09206229841584
496, -19.47857266687788
497, -18.847176495435633
498, -10.616223992052255
499, -5.286882703310766
500, -4.777483275120176
501, -11.54956425677483
502, -26.353025331722165
503, -25.006456404489654
504, 5.250904462347535
505, 40.702921424248416
506, 64.0929532954924
507, 79.48763497407708
508, 97.16948699218119
509, 114.27323663500101
510, 125.09405586291723
511, 135.68923406517206
512, 178.26809011349542
513, 235.28543741935755
514, 282.4629857217187
515, 315.91427443688735
516, 329.37210282950764
517, 321.8820511875965
518, 298.04087905465167
519, 259.60345761379904
520, 215.92445470449275
521, 171.5276904450311
522, 137.3524465731207
523, 134.99321933962165
524, 139.66425553394765
525, 138.97209792097783
526, 126.7746791137015
527, 92.60545601494232
528, 47.21236050470725
529, 22.88349354751699
530, 12.85832528334322
531, -4.990322268489763
532, -29.423111575120856
533, -34.54169754508439
534, -19.417024264817883
535, -9.62685814886754
536, -9.89101796304567
537, -7.5893688696596655
538, 1.6628212665764295
539, 8.254934240809234
540, 7.571535345668963
541, 11.936951792675245
542, 30.94071810760215
543, 52.50811958896884
544, 64.57887574529013
545, 64.65617023176492
546, 48.69460873709431
547, 24.20542789339379
548, 11.157111054686538
549, 9.101188260683557
550, 18.31216431343637
551, 36.21573786765293
552, 44.29700293444148
553, 41.821903010231836
554, 38.66453504810852
555, 36.69570094146184
556, 35.513083777757856
557, 35.023052121794535
558, 35.5746616873912
559, 37.1750503070798
560, 34.13024383778247
561, 23.401052916207846
562, 9.498269288935262
563, -3.2353615770862234
564, -13.180813242877775
565, -18.214154192824935
566, -19.377417921305096
567, -17.60581276386256
568, -10.957193982241733
569, 4.9327916300571815
570, 27.04449078203288
571, 41.48846208502982
572, 48.05685585451283
573, 49.09834703852539
574, 44.461827727924174
575, 32.09235265865573
576, 13.332145426451461
577, 2.0460355188934045
578, -1.234491561583127
579, -7.622980508103865
580, -19.72835112094981
581, -18.50209294646993
582, 3.211847133063202
583, 24.84624004926809
584, 34.74526156120919
585, 40.09798314095133
586, 45.68832413773998
587, 40.56077054578054
588, 14.88335441275376
589, -10.912178948850851
590, -16.260690631954276
591, -7.37982482325242
592, 7.319004650806164
593, 23.5715110065139
594, 28.794584145380213
595, 23.75854425932266
596, 11.61810976826564
597, -4.411012228365507
598, -14.027919130348891
599, -16.78248913209245
600, -10.78043050666929
601, 1.8703518891834392
602, 4.302592995903979
603, -4.942945407783554
604, -11.612002289180964
605, -13.261746910351576
606, -11.906048965478476
607, -8.442602010720293
608, -11.207365408123223
609, -23.023472192411646
610, -28.668872823274796
611, -21.572107305830286
612, -17.741444473867887
613, -26.237793084292207
614, -35.71010593375286
615, -38.362685174575745
616, -40.15206231818411
617, -46.436648401277125
618, -42.86915210633015
619, -11.67102780393725
620, 28.298965389209116
621, 46.10447086912245
622, 46.99760000298011
623, 40.937323001529876
624, 31.002337489782803
625, 26.63925571218897
626, 27.089958610731628
627, 30.91957608843586
628, 42.54794784234764
629, 76.57703971462615
630, 133.4701264768173
631, 203.10475450229205
632, 270.3990497073064
633, 334.8518242108985
634, 394.0205483089285
635, 433.7753445266353
636, 452.3532315348293
637, 453.9646689248402
638, 439.8430648985468
639, 413.5338204549571
640, 378.06180374654286
641, 359.12333256834427
642, 362.7261845117955
643, 366.01094021620156
644, 360.88437129067097
645, 342.217574788383
646, 307.87178525160743
647, 255.72410749900337
648, 185.3202716726537
649, 122.87947627103131
650, 94.90989280414396
651, 80.5520195179306
652, 58.776049840656924
653, 42.906663253603256
654, 36.91153400696385
655, 36.65399771706507
656, 35.363073460322994
657, 25.27881972092473
658, -1.5054695674043614
659, -30.40697922929394
660, -46.86679780810846
661, -54.92044162007369
662, -58.66559586496987
663, -56.50383263627191
664, -45.119769091437774
665, -32.808557048807415
666, -34.9946336062676
667, -43.080592396225256
668, -39.822500022164604
669, -30.9481774729702
670, -30.050797137420886
671, -31.9916504654484
672, -23.21438401303749
673, -6.424737367968191
674, 8.496704534372839
675, 31.298897393022344
676, 91.26706946669583
677, 185.47450752216355
678, 268.758202675328
679, 340.00328309793804
680, 405.7430990132307
681, 462.7763819319607
682, 495.7665878216667
683, 504.18363744400085
684, 492.8072368621051
685, 460.6853778760542
686, 400.52072379776837
687, 314.54874667080185
688, 219.4962651950973
689, 122.39145817533972
690, 61.713756633313096
691, 32.420310357199924
692, 12.385833820360858
693, -3.497071513749688
694, -15.589768227364402
695, -24.62419217876777
696, -29.687065492531474
697, -30.787387125263194
698, -26.958588087729368
699, -19.226490710836515
700, -20.318775946750975
701, -31.19904916835185
702, -34.05065564458528
703, -26.259182500643874
704, -21.325504581476707
705, -20.90767045709981
706, -11.555260090945012
707, 11.341881886508418
708, 52.567877419818615
709, 116.14733622698805
710, 200.00387605806827
711, 287.29863197424856
712, 344.96653110461557
713, 366.2050827137482
714, 381.48471867481567
715, 400.99197558835476
716, 441.1172082012763
717, 504.01603641363
718, 555.6048760587837
719, 585.9751406337946
720, 599.9069350757181
721, 599.1696068367892
722, 587.7907980220771
723, 568.296615160496
724, 557.5536454448866
725, 558.7387297742298
726, 545.0050284507834
727, 509.35215898994466
728, 468.9386106764796
729, 428.04489393181393
730, 373.58053651406954
731, 303.37426804638017
732, 240.70694601551259
733, 191.1373632008508
734, 136.2662562554342
735, 85.3437040920071
736, 46.52598229139949
737, 19.009170360095595
738, -9.100375210939092
739, -41.42812593819144
740, -61.27396728158055
741, -65.91197252357051
742, -64.3518338741469
743, -57.18390304411696
744, -28.139747044020623
745, 27.30097289740297
746, 91.63682769229308
747, 164.59768065761455
748, 228.29326737467454
749, 280.31790539067697
750, 317.84132402084833
751, 339.471850534057
752, 339.2928913624164
753, 316.7284618661779
754, 276.80240377798145
755, 221.66159588591108
756, 159.04502020656037
757, 92.75834987691451
758, 46.89376185546462
759, 18.487203648688592
760, -0.9611802887320664
761, -14.027781814795162
762, -20.48450747025163
763, -21.90581961263888
764, -24.13652836001893
765, -27.827327198534476
766, -31.792285566072678
767, -34.7585427363756
768, -30.890823410170924
769, -20.482573531320668
770, -7.6005133501003
771, 5.202566701436808
772, 7.1519383158283745
773, -1.4129945556906023
774, -16.535828675076118
775, -35.25817429813651
776, -47.633046268558246
777, -52.91033733095719
778, -48.36315336666121
779, -37.77299094283262
780, -30.188700141103254
781, -22.27003348211474
782, -7.090793100629526
783, 12.51387175515265
784, 30.177594956474422
785, 52.883754833243074
786, 91.67373685931852
787, 140.62468506621735
788, 176.36883689196293
789, 207.87823162712084
790, 246.50503613643377
791, 279.90812366434693
792, 294.7146695190131
793, 306.0925062375336
794, 328.07845673581505
795, 358.8408975391849
796, 396.91459630623285
797, 440.95874353124964
798, 489.6427427396884
799, 518.1661698918942
800, 512.513595497594
801, 491.9977077969015
802, 466.22181159939646
803, 432.0075177223607
804, 388.73464843856345
805, 349.8666377614918
806, 318.33864546416225
807, 266.8378456626615
808, 189.86268045898032
809, 119.26159206468583
810, 74.53179137121333
811, 44.076906618434805
812, 23.70778008457637
813, 14.249299164363038
814, 13.420839650898415
815, 11.204402374514757
816, 6.518125015300029
817, 1.5711399529373011
818, -2.9587256960676314
819, -4.4272234801737795
820, -5.216642752844564
821, -12.891891523257073
822, -24.47758883791539
823, -30.72732049289698
824, -30.673015489384852
825, -22.054978812055197
826, -6.271818572320626
827, 14.430427425682865
828, 41.64169515150752
829, 73.35275799571536
830, 97.03579918892137
831, 99.51314735566302
832, 83.57715212818039
833, 51.678773588826516
834, 17.275183968400597
835, -8.787020067848061
836, -16.84645589385582
837, -2.4043878689954
838, 10.334638207017633
839, 12.615737837426423
840, 13.676884427593905
841, 16.0821090544232
842, 11.083878710524004
843, -1.927063827537495
844, -10.592827586486237
845, -15.370889641730173
846, -28.71519293698293
847, -48.01315386596798
848, -50.48254877289946
849, -35.86698189138042
850, -10.247782098153039
851, 23.825406096106235
852, 58.18777803123885
853, 95.52693996927337
854, 139.23491516799004
855, 181.50048746255015
856, 224.98969804270018
857, 270.57788398156663
858, 319.21089439032585
859, 356.8771753799847
860, 371.9266528043663
861, 378.449471591337
862, 385.5578846847002
863, 399.85530290273164
864, 423.2746601266372
865, 434.7097385469824
866, 428.06266966339535
867, 419.9631933309156
868, 413.6101776376472
869, 399.3873040208164
870, 375.2978322805193
871, 340.9622596817517
872, 297.833365104485
873, 251.58037072159277
874, 207.008907610003
875, 175.95912804288855
876, 147.16352837025443
877, 96.04328868709308
878, 44.914640990778935
879, 8.901530835169979
880, -10.855346213667872
881, -11.477963243998602
882, 2.430727816103172
883, 28.18945233665727
884, 35.85068853150733
885, 10.79689617295844
886, -15.785924654004702
887, -33.66664923373719
888, -32.547451373557124
889, -12.527721066671802
890, 2.0213109001033445
891, 7.880774972809377
892, 7.709964735213362
893, 2.314564328886263
894, -6.6275776238599065
895, -15.837582511361688
896, -16.360022854672934
897, -15.303884573620962
898, -25.50426653879731
899, -37.1362454416103
900, -38.14053704568323
901, -24.924687522039676
902, 6.184489212688277
903, 29.929424236577688
904, 31.086476299895367
905, 29.75172733225918
906, 32.399464750413244
907, 25.95325663949552
908, 10.308517244646282
909, 8.153117270023358
910, 18.94086327634068
911, 26.04310995411106
912, 29.211881798197282
913, 38.877213169373135
914, 51.99577906180457
915, 61.304164988123375
916, 61.23591833875798
917, 44.69763926624182
918, 23.79600225437207
919, 11.500907457069843
920, 17.43826208059545
921, 47.0056383857318
922, 73.02339759136157
923, 85.48557661538143
924, 81.30095980399528
925, 62.88792240514704
926, 48.99806577428353
927, 48.917959697400875
928, 67.66277317679305
929, 89.8545261111758
930, 88.31926270624353
931, 78.62118134065531
932, 88.27150050614728
933, 99.97762215131115
934, 95.41311730807138
935, 79.9254254305306
936, 57.05285024841942
937, 27.887019663798128
938, -1.7952540950936964
939, -7.260872145197027
940, 13.382151241076826
941, 30.08122452148291
942, 37.37342935367906
943, 40.58898695341395
944, 40.222947767876576
945, 36.210646361993895
946, 32.60332761304471
947, 35.72536025113277
948, 36.45440774697636
949, 26.22988745265866
950, 16.62671175933974
951, 16.242429733731115
952, 27.900753623926903
953, 47.91489583071416
954, 49.25883691017316
955, 29.051935745272203
956, 3.884137721715888
957, -16.329323062121148
958, -11.601477122690994
959, 12.521844240631253
960, 44.2733681065356
961, 61.33887456669163
962, 40.28106842094621
963, 7.961979044391228
964, -16.34554726916849
965, -25.269889437582606
966, -17.73053015784717
967, -12.841331527156399
968, -14.390064781716319
969, -18.816221835953
970, -21.976488620231066
971, -11.632327224320761
972, 3.8892701761515127
973, 6.4434557942076935
974, 2.6178417099617945
975, 0.2149809482980345
976, 0.120247647276301
977, 2.6057240183554313
978, 2.714231755227047
979, -0.963770321274751
980, -4.64839460416988
981, -8.79842912681488
982, -18.141412074215623
983, -27.527870585962773
984, -20.484957384684094
985, -11.176211004339166
986, -23.160294318591696
987, -30.23956217005434
988, -10.262282579335078
989, 0.962050674657803
990, -11.740786203992684
991, -20.798178745962105
992, -20.77291793391032
993, -23.215432713916016
994, -23.00568898959318
995, 3.122571275055634
996, 45.24905488357945
997, 76.4517351264767
998, 95.0149876086989
999, 99.91480247219806
1000, 97.89781919306552
1001, 93.14614060032272
1002, 90.80420515822152
1003, 89.90430724021462
1004, 73.64355283066561
1005, 44.1220016921352
1006, 23.193135882272145
1007, 16.763075505808956
1008, 36.85157560409425
1009, 72.95258224473855
1010, 107.55613002135397
1011, 125.315832130319
1012, 119.52181854142873
1013, 116.03127098243567
1014, 122.22760475422729
1015, 133.67532188372206
1016, 146.9809040057271
1017, 153.6927234211107
1018, 150.97874113520356
1019, 134.97185640020962
1020, 116.11018239750229
1021, 104.04894566968142
1022, 109.4746130760177
1023, 120.8500707482608
1024, 124.96043586796259
1025, 121.04917559502246
1026, 122.4965504885804
1027, 128.2913546858199
1028, 131.22745409875188
1029, 129.60907526744904
1030, 121.63455055709983
1031, 111.63017658417903
1032, 102.76849579008558
1033, 97.88925280822514
1034, 97.37977675517686
1035, 96.62193239651515
1036, 90.29526112176245
1037, 63.07562655191305
1038, 33.599955421554114
1039, 41.65175133309276
1040, 60.70052543386919
1041, 61.13898587998392
1042, 50.841834473019844
1043, 33.890715366213044
1044, 14.036159011050586
1045, -1.2270762345997355
1046, 8.525893381240166
1047, 31.961266610001985
1048, 35.98743285933597
1049, 20.72713728908184
1050, -11.787716522606388
1051, -33.636626004944446
1052, -32.996265034738826
1053, -27.226962210594138
1054, -21.81425176949051
1055, -22.243418247205227
1056, -31.452690094244645
1057, -55.38698748774459
1058, -78.21787550017689
1059, -80.66905309520007
1060, -70.91064091735461
1061, -52.77663060660416
1062, -28.442881241442592
1063, -0.23208309332403587
1064, 17.351907498928085
1065, 32.6143080628799
1066, 67.6708826469403
1067, 133.22916288877332
1068, 242.75536140861095
1069, 393.0216507967398
1070, 549.1986686658474
1071, 681.0655214484123
1072, 785.243561794221
1073, 881.5805611124088
1074, 968.1811114402108
1075, 1036.2030854403856
1076, 1072.912247352343
1077, 1065.7480968661948
1078, 1007.080182698397
1079, 897.7036806187261
1080, 773.2386291191269
1081, 642.7407086381536
1082, 510.3515378751017
1083, 373.61188371044045
1084, 227.7131512872529
1085, 114.37647071858646
1086, 37.14837294548943
1087, -8.45935498748895
1088, -29.53840497686997
1089, -50.39066705188634
1090, -71.36511832274391
1091, -79.75079622702924
1092, -75.44470020242534
1093, -57.72488232335036
1094, -17.423317583288735
1095, 49.16911509401689
1096, 103.02223473466074
1097, 127.8576671716146
1098, 126.10097693955322
1099, 105.60228197028846
1100, 80.71999544897062
1101, 65.47679600595438
1102, 69.49923941632369
1103, 63.124234132084894
1104, 37.28573742341541
1105, 3.9185584524821024
1106, -24.162304239155674
1107, -22.559759726324955
1108, -11.495210998770744
1109, -14.848951615627811
1110, -19.35322993646514
1111, -18.092598306244327
1112, -6.34394472277836
1113, 13.515702531309216
1114, 26.60684952037718
1115, 21.1347649237523
1116, -18.206427689534394
1117, -40.25288543869465
1118, -18.02549884158725
1119, 0.6438673646134703
1120, 5.900430818594032
1121, 8.158181943980708
1122, 5.687509492461686
1123, -7.232880148913864
1124, -4.927964835716011
1125, 29.572169469551227
1126, 41.23808145858038
1127, 23.439631234463377
1128, 35.59816825384041
1129, 72.30145284937407
1130, 100.24844577018757
1131, 127.52727134854285
1132, 159.4791428745193
1133, 154.24115246213478
1134, 110.25980290671578
1135, 100.85051748323713
1136, 131.27251551315203
1137, 156.36469197844235
1138, 170.35602678890245
1139, 169.59263975723024
1140, 161.87596346417467
1141, 150.96018028638264
1142, 141.22284482048872
1143, 127.86040085045443
1144, 98.51920148653335
1145, 61.63454313936472
1146, 32.5207420396755
1147, 27.895104084896957
1148, 48.57922843864708
1149, 60.05071909230537
1150, 56.12787061040126
1151, 33.497986584496175
1152, 5.824068711935979
1153, -14.156860700401012
1154, -19.888283641281305
1155, -13.01665121980568
1156, -11.928911769434308
1157, -12.245256426528613
1158, -1.0954140358726363
1159, 5.176278617151183
1160, -5.199637937681473
1161, -17.57505669650891
1162, -29.448095653614473
1163, -45.17933682940111
1164, -51.90939963418896
1165, -26.833890559320025
1166, -4.254047957181683
1167, -3.0553149849502006
1168, -9.505766563596808
1169, -17.647691692329317
1170, -17.614864742550708
1171, -13.250564705706893
1172, -10.185709369700817
1173, -11.079264086376497
1174, -12.235852142969634
1175, 20.674550332028048
1176, 91.7473420943843
1177, 194.39436169315013
1178, 283.7862843546236
1179, 329.6429903528324
1180, 367.5042934163148
1181, 410.09158907566416
1182, 458.1242837904938
1183, 508.8040146604244
1184, 556.8189999970427
1185, 587.160431259279
1186, 592.2152973558505
1187, 589.8113716864355
1188, 579.9013564428924
1189, 548.6593257944623
1190, 493.2383587690865
1191, 411.3285000674641
1192, 299.7461691362796
1193, 166.06260966043828
1194, 76.24046573287251
1195, 23.01743245002126
1196, -10.819435551198694
1197, -26.71806827033106
1198, -27.153375617222082
1199, -38.654376323635006
1200, -57.35779410001487
1201, -44.99825217681337
1202, -22.547670157623543
1203, -17.88395945575394
1204, -8.18817916730859
1205, 14.436557483474644
1206, 37.81251281556615
1207, 49.51003590153596
1208, 32.52625985893701
1209, 1.6747741835943089
1210, -29.198995855469548
1211, -30.728452790815027
1212, -2.4184596551731374
1213, 37.4818908930165
1214, 56.833768385854455
1215, 26.607953136383003
1216, -0.9437757321966274
1217, -9.561746469956233
1218, -10.79067139511244
1219, -6.226327157581181
1220, 3.8407026003369538
1221, 5.347498988443476
1222, -6.019817946716103
1223, -6.287673672422898
1224, -3.6600318446489837
1225, -25.00013103793026
1226, -46.81587394037979
1227, -52.04145339999832
1228, -39.75517431070875
1229, -14.084011889728572
1230, 10.700714094415162
1231, 32.19388067631826
1232, 49.61634843581123
1233, 77.34133637942614
1234, 111.79414799907408
1235, 141.92055503258416
1236, 160.68336660339992
1237, 160.74426254752598
1238, 155.6126113800201
1239, 157.16220089821581
1240, 211.41296736806453
1241, 279.69162291539214
1242, 316.4608396198655
1243, 329.01863223867986
1244, 322.24403459064524
1245, 299.8781276490745
1246, 275.9787843127915
1247, 277.6518082859757
1248, 272.38566684050784
1249, 242.69091275994379
1250, 219.8090720791115
1251, 206.17893649558846
1252, 191.60269027828963
1253, 177.60636267562313
1254, 162.37594990148045
1255, 114.51995379710024
1256, 47.49860805719527
1257, 24.291193737999492
1258, 20.95063523591398
1259, 15.87184108782094
1260, 10.396534169337428
1261, 1.9936981524151633
1262, -17.712590270990404
1263, -25.059499275954295
1264, -0.33220069534309005
1265, 5.435304479180559
1266, -12.644513019671649
1267, -22.333710851390606
1268, -17.4533576781605
1269, 5.284582473166665
1270, 24.15635299943824
1271, 29.04068060503687
1272, 12.996326433538343
1273, 5.272210510664081
1274, 32.428752752975015
1275, 69.33264609155776
1276, 99.00882285067473
1277, 105.06249841122462
1278, 100.27783467008612
1279, 98.59491716596949
1280, 94.93902008823261
1281, 89.68264273761451
1282, 89.05353050293888
1283, 90.81597357883402
1284, 92.7500336039684
1285, 99.55702418966757
1286, 106.67427042722466
1287, 96.28759354630893
1288, 87.76553811468693
1289, 106.18738442365157
1290, 122.86807763471825
1291, 130.42365959688414
1292, 123.25524287835378
1293, 115.6511521235152
1294, 118.32997559216892
1295, 124.75537593991976
1296, 132.20858054365908
1297, 137.7208758024699
1298, 125.72082798486917
1299, 91.42502265928488
1300, 75.7466313899995
1301, 86.22074377448826
1302, 98.4796325424877
1303, 104.36891848397318
1304, 96.51358429152333
1305, 57.21976102252938
1306, 13.552762014837754
1307, 15.586104509843608
1308, 30.706645412476064
1309, 39.13094871836893
1310, 28.028796427306588
1311, 1.7150743698530277
1312, -29.47265787350443
1313, -26.97075114848394
1314, 5.620843302087451
1315, 5.256466428421845
1316, -11.605691928482884
1317, -23.38877567284908
1318, -15.364341932509888
1319, 6.827826220755014
1320, 16.160825804341584
1321, 8.388496934651812
1322, -13.902152407222275
1323, -19.32385866648019
1324, -6.677409987111787
1325, 15.27965727771425
1326, 16.72098661124619
1327, -9.040770811024231
1328, -20.217350113382963
1329, -14.835685182463749
1330, 2.47703098058264
1331, 6.213016689448523
1332, -8.517543604573802
1333, -25.70141852701363
1334, -28.94564156600154
1335, -7.091785565145983
1336, 11.831513066586922
1337, 17.285356793739084
1338, 0.6777280927117317
1339, -20.422685292889582
1340, -33.28368093163226
1341, -14.142827175885941
1342, 18.56332053614824
1343, 31.989929885800848
1344, 31.5365901067471
1345, 21.484042314665203
1346, 9.14792332136767
1347, 5.764731167273567
1348, 16.589040108901827
1349, 18.007767933231662
1350, 9.905654129606773
1351, 3.9208548002798125
1352, 9.60387139544764
1353, 27.141007772501325
1354, 30.745519196355417
1355, 28.990160689335426
1356, 35.592352994597604
1357, 47.905323456184306
1358, 59.128937734691135
1359, 53.46625651376871
1360, 34.230041215249
1361, 8.723316215862724
1362, 4.950576848471428
1363, 12.177913798952432
1364, 9.435619193125603
1365, 1.5805906123487148
1366, -4.254612230447492
1367, 9.999520185740948
1368, 33.220871937877746
1369, 50.057729935600946
1370, 34.55487043450648
1371, 0.7843021527778546
1372, -18.68142154502948
1373, -11.945858331157979
1374, 21.014730056293047
1375, 63.14830471288951
1376, 89.71437632662946
1377, 87.46908433870522
1378, 84.61029370626147
1379, 87.67942375039001
1380, 97.2940531276463
1381, 94.19834560705385
1382, 74.70686924258007
1383, 52.61783453567932
1384, 52.74495567743634
1385, 83.36866412442032
1386, 95.35456107420214
1387, 86.9232830965102
1388, 69.89054736114758
1389, 65.61119417268583
1390, 76.3833539739826
1391, 85.0077722826527
1392, 71.24041951489016
1393, 28.71422690538475
1394, 1.5568807918616585
1395, -10.37877070178547
1396, -14.543752156144365
1397, -17.69623983607289
1398, -20.107358193447908
1399, -16.90098518213199
1400, -8.157261328615277
1401, 1.0141049598896643
1402, -14.327321429708718
1403, -32.09837578059978
1404, -27.116848711148123
1405, -12.83288917876871
1406, 3.931824206649253
1407, 14.733637548233673
1408, 1.800934730872541
1409, -23.196256141533922
1410, -0.5337664050057356
1411, 28.148514057758803
1412, 29.544664816993645
1413, 19.24444518332166
1414, 2.723090134934864
1415, -13.84887462212646
1416, -7.885674640006073
1417, 9.828747639240646
1418, -0.2578863082708267
1419, -12.232984222887353
1420, -15.13592310648437
1421, -13.181094160991961
1422, -11.759768503631676
1423, -15.540837890586772
1424, -28.91719361111518
1425, -37.500284189300146
1426, -21.665534899864724
1427, -2.7780528935554685
1428, 7.3521339659728255
1429, -5.56033417510389
1430, -20.92545810737829
1431, -25.85530587795438
1432, -5.641004739587515
1433, 21.08312533386561
1434, 39.64067664678896
1435, 39.664297081944824
1436, 43.824755599740456
1437, 74.99273098930189
1438, 128.56523333726363
1439, 180.6528516835133
1440, 206.26319765687913
1441, 225.9830050634755
1442, 246.14844444795835
1443, 262.5248061206148
1444, 262.8930947535955
1445, 244.159257648329
1446, 220.28527882173876
1447, 214.68363640330244
1448, 237.99864436149437
1449, 246.45933367125508
1450, 232.2272730363602
1451, 198.47835967052015
1452, 181.4658566448852
1453, 178.1986758901221
1454, 167.47876452021046
1455, 152.2043801268237
1456, 129.42397683598028
1457, 89.50494179851648
1458, 63.858400048290605
1459, 58.49691241356413
1460, 63.560591165160986
1461, 86.52247958048702
1462, 132.18571537875232
1463, 178.6252983807317
1464, 212.13481609589599
1465, 225.67603871538267
1466, 248.13065627906144
1467, 272.47654240379325
1468, 284.9221162192134
1469, 309.3929159952395
1470, 332.14847372287295
1471, 319.36924439624636
1472, 281.44874515094034
1473, 222.14582421557316
1474, 143.28786059864524
1475, 84.9198033906805
1476, 59.38669512609067
1477, 26.106599664976784
1478, 10.470649682103613
1479, 16.952298783527112
1480, 6.044833068158368
1481, -3.4241567867766207
1482, -2.7476865908129184
1483, -22.604691264219582
1484, -40.91556309600128
1485, -39.73662456672446
1486, -44.769053706846535
1487, -43.684445187162964
1488, -22.39139885791792
1489, -12.075627203846125
1490, -8.994004647268412
1491, -3.777274213578494
1492, -28.504080885774783
1493, -54.42757679705119
1494, -25.972555751243817
1495, 9.126083706722966
1496, 38.91260501246779
1497, 59.233871925296626
1498, 37.83062536135549
1499, -7.703479729653736
1500, -17.67810840553375
1501, -10.009400130893482
1502, 5.331631877211294
1503, 21.540057220915514
1504, 37.9488204934305
1505, 48.20848376005324
1506, 34.92937479195098
1507, 10.23932300290926
1508, -13.80240533082997
1509, -25.15320750790761
1510, -11.777698073863576
1511, 19.783080486606195
1512, 23.079841511028462
1513, 12.577361281033518
1514, 1.2887688747723587
1515, -2.0560592790689043
1516, -1.4843174019379148
1517, -1.4037186794894296
1518, -8.03734265480216
1519, -0.24306863332822104
1520, 29.093143553743175
1521, 46.31571046663612
1522, 37.97199848178843
1523, 5.190182378076315
1524, -18.55178991998673
1525, -17.54930844315095
1526, 7.764906150081515
1527, 14.72328615166498
1528, 7.390728472867522
1529, -3.4409028162635877
1530, -5.993921383209454
1531, 11.115429870705157
1532, 44.612194452402036
1533, 42.14066662713594
1534, 26.391830182197737
1535, 15.085365644995363
1536, -0.3422289512491261
1537, -14.755782999301118
1538, -24.07012249208765
1539, -23.530036239053516
1540, -2.2144996435572466
1541, 36.62003950972394
1542, 47.951172515205144
1543, 27.45569705575417
1544, -10.539673838140516
1545, -16.947647896727176
1546, -1.2524921616422944
1547, 20.819810448672797
1548, 17.88205092050157
1549, 2.329327386654768
1550, -9.265391607340462
1551, 6.1773427176749465
1552, 11.24947892788532
1553, -0.1606413458021052
1554, 4.86024335329239
1555, 2.8885515122492507
1556, -5.758473500972286
1557, 1.3034747787896777
1558, -11.831219255746873
1559, -36.722762137324025
1560, -29.43165124573443
1561, -29.04966511611201
1562, -38.257869269365074
1563, -39.00325208281902
1564, -32.31758426285887
1565, -17.957737397168785
1566, 2.1202357993361147
1567, 1.0768601036224936
1568, 1.1661564262221873
1569, 37.119729354408264
1570, 98.41303518922996
1571, 184.22070787606208
1572, 292.733013916496
1573, 372.56775439474404
1574, 455.9980963826574
1575, 563.5476883714555
1576, 651.635174975143
1577, 698.5472727771221
1578, 699.9788640689167
1579, 678.2591258569528
1580, 626.2113905245678
1581, 544.6417260118187
1582, 447.7609445535354
1583, 319.42670259400893
1584, 182.82110615826969
1585, 116.0540168447933
1586, 56.900188207496285
1587, 0.4036351657414343
1588, -29.358111846295287
1589, -47.54141734839777
1590, -47.03946039803759
1591, -22.324415684413907
1592, -27.747956853449068
1593, -44.01751591064931
1594, -43.972140303068954
1595, -16.011353446011526
1596, 16.56871859528019
1597, 31.93877599607913
1598, 12.472683285875064
1599, 4.067965796731187
1600, 19.56431888696534
1601, 41.83135375261918
1602, 55.1227742805404
1603, 53.81343461268534
1604, 38.983038773608314
1605, 38.901016221001555
1606, 35.02906511601395
1607, 8.066364088581395
1608, 12.413083491237558
1609, 31.261862074135024
1610, 41.17510774740822
1611, 32.137779135904566
1612, 4.318591853541875
1613, -20.701960116723058
1614, 3.875998872499622
1615, 35.81609086551998
1616, 46.220586723911765
1617, 19.859392562836547
1618, 1.4629292631907447
1619, 7.582000463780787
1620, 36.79698103037936
1621, 43.607551615468765
1622, 24.901702334616857
1623, -8.591683346710852
1624, -29.60863999517096
1625, -29.327947340004357
1626, -9.327138509675933
1627, 19.600827201475113
1628, 42.67584177498156
1629, 53.830551207422104
1630, 48.26047686131551
1631, 11.292190885382297
1632, -19.718419722730687
1633, -23.24550726920279
1634, -17.708135156975004
1635, 6.243944646462296
1636, 34.890168777274994
1637, 24.92747180473725
1638, 9.730849575275897
1639, 6.533423506033614
1640, 18.615532829960102
1641, 18.37328306492418
1642, 11.717611657522866
1643, 6.316074695640964
1644, 3.978695649990186
1645, 15.535024396525841
1646, 24.963998295565034
1647, -1.4597517132915527
1648, -17.046484358659654
1649, -21.728156134667188
1650, -27.73805539015666
##END=



