##NAMES=
##LOCALITY=
##RRUFFID=
##CHEMISTRY=
320, 16.712924112875044
321, 4.264964226367738
322, -7.706422681476397
323, -8.515944307093378
324, -0.6730550605461758
325, 12.34529284702694
326, 29.548024721098045
327, 41.16641607202291
328, 45.943418225966525
329, 39.89547894314455
330, 22.450203947711998
331, 16.293963337124296
332, 32.02817208719716
333, 57.59808831884584
334, 72.55361164647366
335, 79.72231152942186
336, 87.05607287796192
337, 93.47789863745311
338, 89.46930848239936
339, 74.40396692215472
340, 67.53402730409834
341, 76.15752764948593
342, 80.96325995769985
343, 66.06155336958363
344, 41.84057592979843
345, 27.534770319107338
346, 24.307548368662538
347, 23.940825108447825
348, 25.769041742638365
349, 28.99315172796196
350, 33.80875139195268
351, 32.5486969456706
352, 21.26249119969907
353, 7.795045980681607
354, 1.8084710209732293
355, 3.5626143379740824
356, 15.272984753170022
357, 32.54900058007661
358, 34.55591231373728
359, 19.778020232091876
360, 6.078202796006735
361, -0.5152821806132124
362, -5.729560151157784
363, -13.270520861953628
364, -17.821032638368706
365, -11.523917273860206
366, -0.20972139243167476
367, -0.9333137212797737
368, -11.507376059082162
369, -13.40393385239804
370, -4.092499662529008
371, 9.993151935481364
372, 27.672833221486144
373, 40.57801972399466
374, 43.62963584537101
375, 37.33277433710646
376, 22.430195415383423
377, 3.6942028059620498
378, -4.558172765409836
379, -3.8709594939518865
380, -3.9536325584049337
381, -6.455010212615889
382, -11.603144731141583
383, -19.834849741695507
384, -24.12773926063892
385, -19.599111426763557
386, -7.696117741532362
387, 10.088271168788197
388, 28.468911290974575
389, 30.798005402013587
390, 18.446451915619036
391, 4.271661279013642
392, -8.773937824811583
393, -14.54530280052677
394, -11.454832568177153
395, -8.820789354616863
396, -12.121552256412542
397, -16.47698661575123
398, -16.019332923255206
399, -10.509545221542794
400, 1.0241952526212117
401, 16.63783232681999
402, 22.26343414373696
403, 16.792319478598074
404, 5.786489571428319
405, -8.583536583717432
406, -21.731419670066316
407, -32.11634678003793
408, -29.19076621480599
409, -2.107820407300096
410, 32.16259001674371
411, 38.69819426504546
412, 26.013445236570988
413, 27.1364765795297
414, 43.344904514508016
415, 68.27617583206666
416, 102.87962970888475
417, 138.56281212509566
418, 174.5255518541435
419, 195.76127291754892
420, 192.93955897086926
421, 186.12909242205387
422, 199.4564274984914
423, 223.5203979939306
424, 237.3264192068873
425, 237.59446982417103
426, 214.18685779624138
427, 168.97875357528392
428, 125.34790378932848
429, 88.56080096721962
430, 72.15570158540686
431, 76.23935591218651
432, 82.07294684548651
433, 81.56333820059263
434, 70.59758845146098
435, 43.70953876217027
436, 10.561359995124803
437, -4.779604709163323
438, -6.349257985420991
439, -8.985546479334516
440, -13.68714866494338
441, -13.568873243086273
442, -7.386676520154651
443, -2.0423031442715
444, 0.19968319954023173
445, 13.020098205197428
446, 46.83036848127995
447, 78.38772710864396
448, 80.330188887654
449, 66.53698814922245
450, 67.50431267295971
451, 79.59678698789503
452, 85.11029577346562
453, 83.95091060561572
454, 87.0864273377083
455, 95.36020296404422
456, 90.70538759775081
457, 67.64825561538964
458, 52.210590237818906
459, 64.21526543546497
460, 76.42482400176232
461, 67.17545420204806
462, 43.141070640604084
463, 15.83822347665955
464, -10.840598765431423
465, -33.48775973404008
466, -50.31667332254074
467, -44.92110155777118
468, -17.482832435820455
469, 5.86421894169689
470, 20.745431753432058
471, 31.70052646586373
472, 40.778256522649826
473, 47.06252380028127
474, 49.945550849512074
475, 44.6365749583274
476, 25.63843699240533
477, 0.7745068869135139
478, -14.856565239408155
479, -22.21725794705526
480, -21.318751832583075
481, -12.281765285144502
482, 4.4374600345036015
483, 28.60680576397135
484, 43.76735813431878
485, 46.36749215378768
486, 44.1437640644599
487, 40.18343174113761
488, 35.98924894245283
489, 32.51662860268698
490, 26.46486677414032
491, 14.336095883983944
492, 3.5941809523210395
493, 3.6301553402881837
494, 9.488653130212697
495, 6.7098124535677925
496, -2.8873581530697265
497, -8.15121299272323
498, -9.110088633524356
499, -11.954518840337187
500, -17.565697187023034
501, -17.855076284242386
502, -10.288798532108558
503, -1.2009710529418953
504, 6.801009350298045
505, 14.527781151771705
506, 21.306889356874308
507, 22.764775622821617
508, 13.375224964011068
509, 5.117018752776858
510, 18.134975131957617
511, 47.774810493345285
512, 77.436857996252
513, 101.91723840744089
514, 125.35729185229866
515, 146.72487502842887
516, 154.31037118333552
517, 146.80097656096405
518, 139.20332179156685
519, 135.7383954125471
520, 119.56914600891469
521, 82.81529823566052
522, 45.501801501362934
523, 26.561150407298555
524, 19.58268875268368
525, 18.79943005756104
526, 21.981169806789694
527, 25.780576900055166
528, 27.17111211163501
529, 24.21851492031783
530, 19.091402273405038
531, 22.132373534606813
532, 29.8065930083103
533, 28.44018508255067
534, 17.064628347154212
535, 6.282371650011555
536, -0.8229390335491189
537, -6.268701608360061
538, -10.748005316425406
539, -3.097976685337926
540, 23.232179344322503
541, 51.84036213180116
542, 66.3409650019803
543, 71.78468493820401
544, 73.76980700860258
545, 75.63718124204024
546, 82.81092513783187
547, 90.62361567794869
548, 88.0768754995006
549, 80.08746330354734
550, 84.28832631917612
551, 97.32255160442219
552, 96.81084146626381
553, 82.73260522527198
554, 75.08815257187234
555, 75.41629287023898
556, 57.99629693206589
557, 17.67757482878733
558, -5.0456025414023316
559, 1.9773566249987198
560, 13.999616718709149
561, 18.56832525266327
562, 20.03470184064281
563, 22.7247535310471
564, 20.574775759119802
565, 7.045408023208438
566, -9.269562233497709
567, -18.013228827448984
568, -19.663815412168333
569, -13.815941457169174
570, -3.0185235011722398
571, 4.87069112395875
572, 10.902735146255509
573, 17.704830416791083
574, 23.781925405293805
575, 19.49160962154201
576, 5.8449436931696255
577, 1.9709232415771112
578, 9.633288702880236
579, 9.182768505736021
580, -3.9601931490742572
581, -12.887886946289655
582, -12.224525090634415
583, -11.782630534904456
584, -16.35019628876762
585, -13.95453646907663
586, 3.918108330013638
587, 22.11952645288511
588, 25.056683853090362
589, 19.337892822888534
590, 13.037587493769024
591, 5.643689098278628
592, -3.141430220996881
593, -9.365064438385161
594, -3.4126020636458634
595, 9.36871609533955
596, 12.157891436988393
597, 5.795178964923252
598, -3.2847893477046455
599, -12.422415049783922
600, -11.364167672482836
601, -0.16789698804313957
602, 12.811182940228719
603, 24.702599495515642
604, 24.92985185843372
605, 12.62112545473883
606, 4.77833646914678
607, 5.810935693264582
608, -0.3691651028375418
609, -18.699164132126498
610, -30.516882823233573
611, -28.00898785944537
612, -27.38030055420768
613, -37.831666958266396
614, -43.55426774963598
615, -33.04438738338831
616, -20.81837962428108
617, -19.821865429031277
618, -19.75258550560011
619, -8.738843706676562
620, 5.787778787280331
621, 12.807911382891689
622, 18.181180282086643
623, 31.932110205427307
624, 47.603803634912765
625, 54.53761824443973
626, 54.63527497030009
627, 54.03580882566894
628, 60.49481578970881
629, 81.224807618868
630, 118.19573808074347
631, 172.66694668523814
632, 228.37686882548405
633, 265.0551181115934
634, 284.92394724912447
635, 317.1429173169581
636, 365.49163056461293
637, 422.3237135035379
638, 483.01650613176935
639, 519.0280917937926
640, 524.4681942959851
641, 512.0321733748533
642, 486.30498951169284
643, 461.3018121210589
644, 442.3160555267423
645, 439.5751019433101
646, 456.30459478808007
647, 464.78722344288326
648, 452.13800423086104
649, 427.6988490156946
650, 396.60900855248383
651, 358.7257487641273
652, 314.03006646562426
653, 276.5509015612397
654, 256.7396204697179
655, 237.20495130515974
656, 202.8029732445657
657, 155.8062744736526
658, 98.5304248659113
659, 46.660054896951806
660, 1.9203719734241531
661, -28.563916821065504
662, -32.05667477012503
663, -21.98686986372195
664, -17.798330459048884
665, -17.249797340014993
666, -16.672169166839012
667, -19.5047715208284
668, -33.08408676369254
669, -46.35996534509104
670, -32.76291479157226
671, -3.9254065904924573
672, 8.472775848479614
673, 6.82736115001444
674, 1.0108187852947594
675, -5.993670493580794
676, -7.86519718263844
677, -4.049633316460131
678, 6.706697549197088
679, 22.04496681404362
680, 28.417625688543012
681, 26.37453292649934
682, 22.93666890966415
683, 20.88938179518027
684, 31.34171277839505
685, 48.618030115787406
686, 50.335669855890956
687, 36.82263070393856
688, 25.189451562895556
689, 16.989198558511816
690, 6.986985808542158
691, -3.673524678553804
692, -8.227199841987385
693, -7.7833512083198
694, -15.569798470359274
695, -31.18150973700631
696, -30.135106295098012
697, -10.855156620157686
698, 0.3201540750596905
699, -0.03295062247707392
700, -0.44993556321696815
701, 1.1386744154788175
702, 0.9736600084725069
703, -1.2310466766875834
704, 0.36749422972843604
705, 6.755685074023859
706, 12.012780179349647
707, 16.88419433433228
708, 41.68874993758618
709, 92.65420695009652
710, 158.03586150766841
711, 222.80017600746487
712, 274.171866876879
713, 308.96941524906106
714, 332.39108449559535
715, 347.29318079519817
716, 370.19637789860644
717, 405.06471410851736
718, 440.1066383513098
719, 471.4342147737825
720, 494.7901155360323
721, 508.9237783819917
722, 514.486125665675
723, 511.5810431301479
724, 498.9396743755169
725, 477.0188154660009
726, 456.9776005390486
727, 441.28314497187694
728, 417.0217977914781
729, 381.0148688598383
730, 343.66748922488296
731, 307.4958140833205
732, 264.0058536516435
733, 211.3531156359586
734, 158.52008266772373
735, 108.21871987222858
736, 71.69979448720187
737, 45.381154631109894
738, 25.98788097191573
739, 11.445938870884675
740, 0.858616943342895
741, -7.505528828909519
742, -23.22503489776136
743, -47.800400996338794
744, -59.33841035124169
745, -54.06375427936473
746, -44.42035816080352
747, -32.65735807003239
748, -17.59528311152735
749, 0.5576732605313737
750, 9.165119168030287
751, 6.695017645216467
752, 7.827393915124048
753, 15.179662243090206
754, 24.417632241384126
755, 33.22581073926449
756, 30.707851194539217
757, 17.15532743028325
758, 7.308509096466878
759, 3.811479850895921
760, 2.444684175294242
761, 3.1303455561783267
762, 9.61102304520864
763, 19.060322009386255
764, 16.385394771967185
765, 3.2920076307846102
766, -2.9313821960613495
767, -2.5052195543603375
768, -2.299351962851688
769, -2.2344711618325164
770, 0.7720884948230378
771, 6.202913540500958
772, 10.140897333748399
773, 11.947279085635273
774, 10.635413358391816
775, 5.996802247208507
776, -2.3570831908455148
777, -11.560668909628475
778, -14.55021160430806
779, -12.539650309674471
780, -8.343212946451786
781, -4.439019720310171
782, -6.155348419767506
783, -9.668414064926765
784, -7.685706016476615
785, 0.9168296770949382
786, 18.237609297307245
787, 31.98478789656201
788, 24.672422179897694
789, 8.129219389426908
790, -1.876598793879566
791, 0.025994564685788646
792, 20.86109668496556
793, 45.513462576032
794, 55.99974958089933
795, 59.76440083762827
796, 62.67239472725487
797, 59.877625132930916
798, 48.317516057061766
799, 42.401908076166364
800, 50.02155306018449
801, 50.688698518726596
802, 35.00424382407164
803, 25.92091966140015
804, 34.52841444658861
805, 32.84661274126756
806, 13.289490008645771
807, 1.16627634094948
808, 1.6601028192080776
809, 3.1052221847257897
810, 3.3454631545291704
811, 8.974586579371135
812, 20.64764926516
813, 28.4966080203576
814, 31.893365441354945
815, 36.238836306619305
816, 41.00992732375926
817, 40.408111503978944
818, 35.49561657702725
819, 32.56180626171681
820, 31.234671769734632
821, 28.717136293465956
822, 22.68039925102221
823, 7.865789420444344
824, -3.728463477837977
825, 9.823516097590073
826, 33.09298860956824
827, 36.40634396596943
828, 30.33403105258276
829, 29.46119133574939
830, 25.43998358249064
831, 9.444222062229528
832, -1.8970729716693313
833, 3.010251095831336
834, 3.550663990985413
835, -13.37413155458944
836, -21.727516927405304
837, -8.641272766055408
838, 8.740439122336284
839, 22.76914576269519
840, 21.6309086100282
841, 3.1966144983580307
842, -13.749309985400032
843, -24.504097634910067
844, -18.57485653898948
845, 1.6282768744304121
846, 8.218717964432471
847, 0.09761430678008765
848, -7.011233502137657
849, -11.912728783733655
850, -14.677973314085648
851, -12.119584037815002
852, 4.793937788044786
853, 23.083125055550227
854, 12.328723531578362
855, -4.477373204612377
856, 5.307167579993802
857, 30.358218093434516
858, 58.67533806306619
859, 86.23165521873034
860, 112.05414917105736
861, 123.99201538947909
862, 114.68459681422246
863, 94.26702996994572
864, 68.5377749701056
865, 53.88966115111998
866, 60.02890864110941
867, 64.12209128735412
868, 62.46007769145035
869, 62.55151011484759
870, 62.80389487339562
871, 47.235973470528734
872, 20.06601725156088
873, 7.731389198677789
874, 6.631540037489685
875, 3.577903237153805
876, 0.716452958170521
877, 4.374758741712867
878, 11.185831022311504
879, 14.797222312372469
880, 14.573336546662176
881, 9.93473802452354
882, 9.140149045880207
883, 18.94114302174239
884, 20.676994630260197
885, 5.685621363720202
886, -6.037721359200077
887, -8.461692309224418
888, -6.764311835834633
889, -1.5935260666028626
890, 11.7701793531769
891, 29.218438607482312
892, 25.689387326188807
893, 3.6897089113172115
894, -16.230543367332757
895, -29.283384714711246
896, -24.370144693008115
897, -10.869886723390664
898, -5.42391522748585
899, -3.454297030538328
900, 0.4083841653246054
901, 1.3898647061068914
902, -4.283813979935985
903, -4.36295158487701
904, 7.1552391118893865
905, 10.269749692683035
906, -0.8472678289772375
907, -5.086341156801609
908, 0.9371581916548166
909, 6.1023617819219
910, 8.33450225569868
911, 8.088519355714197
912, 5.547162855591523
913, 1.6437241741468824
914, 0.9787211192233372
915, 13.252561154960858
916, 31.20844871052941
917, 41.94518159182189
918, 42.65395541248199
919, 31.145848044420745
920, 16.14657763809919
921, 4.980453391261108
922, 11.196402332827347
923, 38.418886150689104
924, 60.19525634313413
925, 70.87587026224173
926, 75.04389523792179
927, 71.88045752779271
928, 55.51573981310685
929, 33.15247998700124
930, 24.029622217612086
931, 22.536515326391054
932, 11.703793787682116
933, 2.9972978927517033
934, 6.343111229215538
935, 10.876773579041583
936, 8.90969029725784
937, 7.508734356367313
938, 9.078984026805301
939, 12.928207257870781
940, 18.22119668369396
941, 26.85575362162308
942, 34.87865481755034
943, 25.948924045835156
944, 6.4629273004538845
945, -3.395453477267438
946, -3.306703648855546
947, 7.389861746058159
948, 19.880482420621775
949, 23.98539700787569
950, 18.35106557245217
951, 3.1003934486761864
952, -4.987405403912817
953, -1.3521845261957424
954, 8.035900511775253
955, 19.876192960262415
956, 19.666050706388887
957, 12.606002052596523
958, 21.26968297388612
959, 34.91748910201204
960, 32.93491668518618
961, 21.24789504223554
962, 7.18423074670136
963, -8.369127388428751
964, -25.721233420546014
965, -21.201164876820258
966, 11.582898514350745
967, 31.150351711849908
968, 28.55789431265839
969, 14.284267353371433
970, -6.484048535544389
971, -23.005764504914623
972, -30.47109249540972
973, -18.981879285591276
974, -2.8362230218926925
975, 2.2820169739870835
976, 3.3659478443405533
977, 4.762158370771431
978, 8.974766511961207
979, 15.530576304949136
980, 16.996592751814205
981, 11.898439707577381
982, 1.0847129919693543
983, -10.171993166395623
984, -9.662728700031039
985, -0.9551831105436577
986, 10.092760824500147
987, 14.580017861452689
988, 5.185232769038521
989, -4.329974574525295
990, -8.018376131384684
991, -11.442158648595068
992, -16.092924596890953
993, -20.393091224267664
994, -23.826737406018765
995, -24.742633932439276
996, -19.746620555018126
997, -2.1318128172943034
998, 17.313146267159027
999, 25.676006559009693
1000, 21.81387422546686
1001, 6.374119157092537
1002, -1.7921510450860296
1003, 1.0452341485633951
1004, 6.625206601406717
1005, 12.991652754921233
1006, 17.348207733024537
1007, 22.26541578918932
1008, 32.929187443899536
1009, 50.203954812677694
1010, 76.82853737616006
1011, 92.62443195077958
1012, 86.77286731140521
1013, 66.47619628661414
1014, 38.46422284551409
1015, 33.46277679183004
1016, 48.73184703390871
1017, 59.47000097203909
1018, 63.64822753504632
1019, 60.50974439403217
1020, 50.16814317904391
1021, 33.19098429597307
1022, 24.693397592318433
1023, 32.13949784910528
1024, 28.268036622106592
1025, 10.968660223653387
1026, 3.0785267993951493
1027, 3.787134837872145
1028, 5.644306527209665
1029, 10.62791181639841
1030, 22.16506121895327
1031, 29.54734518198893
1032, 26.70825383679312
1033, 25.29282665167011
1034, 28.324339423968922
1035, 26.856949780226387
1036, 20.90900114114811
1037, 16.482796159488316
1038, 13.295208088395157
1039, 11.230973841826199
1040, 12.731422712246058
1041, 20.15193877200545
1042, 24.930465254184128
1043, 24.76606129261836
1044, 29.790570764678705
1045, 39.842956055972536
1046, 43.83266088767596
1047, 40.00368314996649
1048, 27.245233935866963
1049, 5.154814890098351
1050, -25.47229291173244
1051, -37.78660007025155
1052, -20.23758011708378
1053, -6.713465845349674
1054, -4.175229943200975
1055, -5.368021938575112
1056, -9.183001186730507
1057, -15.225198054743487
1058, -20.53232808672692
1059, -21.582680140320917
1060, -24.114595956070843
1061, -31.024214270018092
1062, -37.047029643198584
1063, -36.6788223295689
1064, -8.78368952141227
1065, 31.876199771520078
1066, 41.82709963991147
1067, 51.81421588862031
1068, 98.38274317303149
1069, 160.82935693918807
1070, 216.72224836850273
1071, 276.15815441064933
1072, 334.72564531104763
1073, 361.7622973067382
1074, 371.7683014981303
1075, 402.79850385499776
1076, 432.01820914042946
1077, 435.5913348012027
1078, 411.44041882684905
1079, 360.55264124880887
1080, 298.96994670979984
1081, 232.51174387358606
1082, 169.29533905472545
1083, 110.56199848156211
1084, 68.26756850115999
1085, 39.44096114360673
1086, 21.855300553072993
1087, 8.46862399442307
1088, -3.5950040438083306
1089, -13.163783741410953
1090, -20.19306485246034
1091, -23.733780980624033
1092, -27.472196825917308
1093, -35.86148207763199
1094, -35.93872501061469
1095, -21.236411331986346
1096, -3.167405694031004
1097, 13.1996897756826
1098, 13.877486478825631
1099, -0.08667097493253095
1100, -23.764793815982557
1101, -28.78189022105471
1102, 6.535175452017938
1103, 30.831509278281374
1104, 25.73631543313786
1105, 7.7843167191058456
1106, -13.557201767116567
1107, -24.88983895759975
1108, -18.697418533261953
1109, 13.539923106369315
1110, 29.133881396077413
1111, 10.879116698825783
1112, 1.010127125251529
1113, 2.1340009662299053
1114, -9.188104660482168
1115, -22.73653789753189
1116, -19.818630793588454
1117, -8.479753505956069
1118, 6.873093359788072
1119, 26.186946497397912
1120, 43.135023314252976
1121, 36.039560307011016
1122, 12.782585369433946
1123, -6.419974571515013
1124, -12.113625279058397
1125, 2.341617012773895
1126, 22.273053806803546
1127, 40.23330778012132
1128, 47.03514983124023
1129, 45.675253467429684
1130, 44.96642355229778
1131, 38.476261871877796
1132, 21.532439018843434
1133, 15.193891899905793
1134, 22.45881204268062
1135, 26.60949117047221
1136, 33.08477322216095
1137, 59.5367579959302
1138, 78.54592143193167
1139, 69.5832948952293
1140, 70.65286116833886
1141, 90.60698472464355
1142, 98.91238028320731
1143, 96.0709083558304
1144, 93.71108799862304
1145, 76.9333102068149
1146, 34.28473035824118
1147, 13.395952997937457
1148, 22.32385875604723
1149, 28.797777734735064
1150, 27.237411344504835
1151, 20.845960025274508
1152, 8.297761140201146
1153, -9.791689715656503
1154, -19.70995073931863
1155, -17.573327771831828
1156, -5.302282276135884
1157, 10.186306416196203
1158, 14.277306723604852
1159, 11.849301221234782
1160, 6.670571799423669
1161, -2.575718520938608
1162, -14.121363541023129
1163, -19.356684531276187
1164, -19.06349468900862
1165, -15.297132059529758
1166, -7.11714985099843
1167, 4.385389737128207
1168, -1.0816054267606887
1169, -19.035987474673675
1170, -19.816469524116656
1171, -7.728928697258198
1172, 9.668223072280853
1173, 25.645076195123693
1174, 33.11276292804632
1175, 18.15706695928293
1176, -1.4269410485194385
1177, 18.215618094676756
1178, 50.82330145125343
1179, 66.6746685938133
1180, 69.79314399108989
1181, 63.7803036189689
1182, 58.719900836705165
1183, 59.69987371675052
1184, 73.2039081686371
1185, 73.27595201009899
1186, 46.358665470916094
1187, 21.443191747218407
1188, 8.161588387701158
1189, 6.405233641947234
1190, 10.407016693057813
1191, 13.4460868293354
1192, 4.479859358100839
1193, -15.547026381964315
1194, -22.399191011058974
1195, -16.157374112149228
1196, -3.234627328853094
1197, 3.228905721868614
1198, -5.051436802284115
1199, -12.032901091649364
1200, -14.142559195674039
1201, -12.075811815660927
1202, -4.272819332200925
1203, 10.913704731915459
1204, 13.643157751070248
1205, 0.9148771578802553
1206, 3.492803386295236
1207, 18.545302180749786
1208, 30.733436355577396
1209, 33.248610222465686
1210, 23.53141466010038
1211, 17.21616564193573
1212, 19.669985160298893
1213, 30.76441146660636
1214, 42.88806548416051
1215, 49.937759619590906
1216, 47.016121253251185
1217, 33.97439795110586
1218, 17.82463727236427
1219, 5.204647228723843
1220, 5.159414779840517
1221, -1.092030719893046
1222, -19.00663768159302
1223, -18.99005379314167
1224, -8.170916505389869
1225, -12.993059964821441
1226, -14.053118137677302
1227, -0.19571964094939176
1228, -6.040280227174662
1229, -25.60699690681122
1230, -14.906032015953315
1231, 0.8174359638933311
1232, -3.8180493749805464
1233, 3.716302750077375
1234, 28.447759903132464
1235, 43.63507530870356
1236, 54.18986850391866
1237, 69.09556516023622
1238, 62.405251622985816
1239, 33.397483427106636
1240, 37.824480505229985
1241, 62.08135851239331
1242, 66.90511574069842
1243, 67.55786251467725
1244, 71.72920743988834
1245, 74.55233632951786
1246, 82.32102479596779
1247, 109.21338841574197
1248, 112.95695700877332
1249, 71.41806426028324
1250, 26.800555654481286
1251, 0.36466575859230943
1252, 12.397290740842436
1253, 41.75823126166688
1254, 67.14275010749134
1255, 65.48918378027338
1256, 41.47976460318114
1257, 23.650602088701817
1258, 23.676876171754884
1259, 45.19966004404523
1260, 53.06447620388917
1261, 40.570297368578395
1262, 14.958486628001083
1263, -4.474482702167734
1264, -4.457888060375808
1265, 0.5254744139465402
1266, 4.490356059376609
1267, 0.9228103851773994
1268, -3.5639231017139537
1269, -1.8018475245016816
1270, 7.369306132056408
1271, 19.60341729400352
1272, 15.629781267092767
1273, 13.616303230029189
1274, 33.032253375798064
1275, 43.3654027023922
1276, 38.04081827841401
1277, 25.807377705395993
1278, 7.175650668283197
1279, -14.330091204696146
1280, -1.7235800336193279
1281, 39.796191121221455
1282, 50.834815995383906
1283, 46.10495651502333
1284, 43.286776757643565
1285, 31.988086670958182
1286, 17.09065607061075
1287, 24.063841378903817
1288, 27.7789895443384
1289, 10.102519926124842
1290, 14.038110164113277
1291, 39.64323784615499
1292, 54.07984885488986
1293, 47.46682426026382
1294, 17.294958136081732
1295, -0.642018247717715
1296, -2.3999706177883127
1297, 6.441105674816754
1298, 28.730148272886254
1299, 58.34607320832856
1300, 44.80789228034973
1301, 13.350799288122289
1302, 35.94498248209038
1303, 57.884354861829706
1304, 52.58332862669158
1305, 47.35019414220915
1306, 36.59831606156786
1307, 5.31462247592026
1308, 0.8575977609143592
1309, 30.223805606377937
1310, 28.849686331935118
1311, 5.815948742066212
1312, -15.257636044002538
1313, -24.644490560717713
1314, -18.145143703978647
1315, 8.036558895675626
1316, 29.20285422602865
1317, 19.690855913537234
1318, 3.772115350963759
1319, -8.78448965419193
1320, -12.09129031129305
1321, -10.129839911462113
1322, -5.420249954582687
1323, 3.576975713831416
1324, 12.097529815153393
1325, 8.776981653764778
1326, 5.981010872440493
1327, 9.076187407250472
1328, 10.175594385937075
1329, 19.99962161347139
1330, 50.43954843380561
1331, 52.80633475827199
1332, 20.304173438476937
1333, -11.811924883421852
1334, -32.896062004186206
1335, -36.174622100543274
1336, -13.604303158924267
1337, 21.498342526262604
1338, 31.41989321902929
1339, 19.64858542508955
1340, -5.392512219018499
1341, -14.05914982806462
1342, -9.281970110187103
1343, -0.2647743863062715
1344, 9.079628211737145
1345, 15.401789611406457
1346, 9.37492998837024
1347, 8.71212684799957
1348, 25.412290129575922
1349, 34.527589826317126
1350, 34.68335774352181
1351, 34.373080633597056
1352, 41.471397215500474
1353, 55.017114945507274
1354, 52.70660353307085
1355, 45.56947737321934
1356, 48.783318055338896
1357, 45.938279958276325
1358, 38.539236796200385
1359, 43.30690753735689
1360, 33.05707174319741
1361, -1.5421250597464677
1362, -7.914027865345815
1363, 8.395865611521003
1364, 28.357588341027622
1365, 41.80910323436456
1366, 42.3549303622749
1367, 20.470366679712242
1368, 3.323004942296393
1369, 10.219847772666071
1370, 26.12572079885922
1371, 35.120803736187554
1372, 18.4960277828186
1373, 1.1641721276946555
1374, -5.391936783463279
1375, 2.4992079153662417
1376, 10.144238878910073
1377, 7.595691649479704
1378, 10.752072354464872
1379, 21.62033783472907
1380, 36.06215845552197
1381, 45.548352224717746
1382, 44.8952129661875
1383, 28.259005525310386
1384, 21.530908857837858
1385, 41.159533605466095
1386, 39.33369270469939
1387, 18.636994254562524
1388, -2.001506374690507
1389, -10.148991193421352
1390, -5.463182294158287
1391, 1.986149519761966
1392, 9.21637903199462
1393, 12.064009348744548
1394, -0.45907356866882765
1395, -11.011607807841756
1396, 3.200001685208008
1397, 8.321993261954958
1398, 2.9966568097088384
1399, 12.62040909404277
1400, 12.53857851205521
1401, -5.549434878294051
1402, -13.452070440625903
1403, -13.33350969838557
1404, -9.845263237644758
1405, 2.8267585066259926
1406, 21.749110978043063
1407, 35.27516048291909
1408, 25.671482489138725
1409, -3.4780580407586967
1410, -15.88814807011022
1411, -8.246151238211496
1412, 17.018907888050308
1413, 34.686344627831204
1414, 38.29363040671342
1415, 26.147415440545956
1416, 12.26961718882012
1417, 6.699756971564057
1418, 18.5597487636569
1419, 17.085433915185604
1420, -4.807416208800532
1421, -19.545287422772162
1422, -21.282452705157993
1423, -9.6053334653825
1424, -3.3441978937671593
1425, -2.81449854029961
1426, -3.899412854299044
1427, 0.11281920810051815
1428, 9.638636278698868
1429, 19.694948890888554
1430, 10.817724689532952
1431, -12.900423418340324
1432, -8.30923343253744
1433, 4.732077775059224
1434, 9.906871398481599
1435, 6.3667859486931775
1436, 2.19448786421799
1437, 9.00118231938086
1438, 45.53476573152511
1439, 90.37373805869083
1440, 99.31205670920644
1441, 85.69842203122334
1442, 65.29170485361647
1443, 65.87047074770726
1444, 67.52483080240836
1445, 57.31218094067481
1446, 30.593265763871386
1447, 8.992822633022115
1448, 7.241609888553285
1449, 33.364471262231746
1450, 64.93685062037093
1451, 68.14981078368783
1452, 62.75394893462908
1453, 60.632901449856945
1454, 72.3801509676623
1455, 68.77407798013064
1456, 46.207903799700944
1457, 22.284036088823086
1458, 19.842259517315142
1459, 43.08084130795214
1460, 71.44789372631749
1461, 75.78151802289358
1462, 48.16581427620258
1463, 40.591854360692196
1464, 53.42252222797197
1465, 70.5875309972871
1466, 78.043154189917
1467, 67.5220161842526
1468, 36.406694409371084
1469, 34.95426179289461
1470, 55.03030994984056
1471, 58.58028408619157
1472, 44.6826709992456
1473, 24.185533608725564
1474, 24.314367931121524
1475, 46.16666028164855
1476, 69.21063435289761
1477, 41.757340270225995
1478, 4.357740017802371
1479, -16.552661518587684
1480, -15.685887618552897
1481, -1.5478890609615519
1482, 16.22351454624595
1483, 16.230094676148383
1484, 17.378849584873933
1485, 32.568244920523284
1486, 27.76508882272219
1487, 0.5675989016099265
1488, -38.390261128655766
1489, -40.145896474230994
1490, -13.77694467840729
1491, 14.89272871119374
1492, 24.87651613520029
1493, 11.189849927834075
1494, -21.10334087673482
1495, -22.652821942087485
1496, -0.09854806189741794
1497, 9.076373358476303
1498, 7.865541199455947
1499, 1.7436927631692924
1500, 0.1326232620722294
1501, 8.321931002201381
1502, 18.142100181467868
1503, 5.587999504013624
1504, -7.224241806493865
1505, -8.372993950266391
1506, 10.292873657508153
1507, 22.067635087753388
1508, 15.488542104092176
1509, -2.290578706769793
1510, -7.459318869378876
1511, 6.809145714719762
1512, 24.088620934242044
1513, 20.835620897026274
1514, -3.496589037715239
1515, -6.619172522597182
1516, 9.231140514631079
1517, 33.06591179236693
1518, 29.697051572403325
1519, 10.862992720148213
1520, -3.924154185345742
1521, 17.634837726819114
1522, 31.89214927814737
1523, 13.344739100143215
1524, -8.809372714463734
1525, -19.80668000311698
1526, -13.549318679002681
1527, 3.897909609988801
1528, 6.6125761645871535
1529, -12.53346840838094
1530, -5.683160629175745
1531, 13.978783483034931
1532, 33.77155800344963
1533, 48.76623624598551
1534, 50.82634716104576
1535, 42.80696006984863
1536, 58.291724983353106
1537, 59.097103544144375
1538, 26.71371843633233
1539, -0.18839985784643432
1540, -17.604353187436573
1541, -23.059943161219962
1542, -1.9309780516591672
1543, 9.497640217170101
1544, -2.932046034341056
1545, -8.633574575021612
1546, 4.305565200570072
1547, 32.108981705050155
1548, 40.23925424570416
1549, 37.84932253944635
1550, 34.115960830870335
1551, 37.951269466519534
1552, 46.819128418464516
1553, 48.457929274952676
1554, 16.17095886914194
1555, -1.1843431314732698
1556, 3.9260643820780388
1557, 5.237795858437039
1558, 1.8890927183683743
1559, -7.984824989622211
1560, -26.327168492065994
1561, -22.152991492798265
1562, -7.570311448258053
1563, -19.74412564178874
1564, -28.390674721027608
1565, -24.508064506686424
1566, -7.529637725689099
1567, 13.533281069031545
1568, 25.93946175730298
1569, 19.792250690034507
1570, 25.550354452491774
1571, 60.76263127591619
1572, 132.86265569971283
1573, 195.03601508935526
1574, 244.7639668833017
1575, 287.6536949224924
1576, 334.84281586727184
1577, 366.4195715106439
1578, 368.3060136443146
1579, 339.9180138555266
1580, 295.3564798244288
1581, 246.11772456356357
1582, 202.52370835721558
1583, 140.92547567056408
1584, 75.04479894474116
1585, 59.40495878284264
1586, 50.74088621194596
1587, 37.92268089268009
1588, 23.44029274062723
1589, -9.031437746651136
1590, -38.46142718174815
1591, -37.24081010049167
1592, -26.752097060524648
1593, -14.619907060424339
1594, -4.969924662386347
1595, -1.312743842061991
1596, -3.0963159779112175
1597, -10.697633865042917
1598, -26.344429163928908
1599, -32.30598731192276
1600, -15.163547422795546
1601, 35.52298034512842
1602, 76.25822501699622
1603, 81.02808366710588
1604, 38.67142991821265
1605, 10.602303056462915
1606, 6.168856266858711
1607, 14.492921930320335
1608, 17.018758676241305
1609, 13.56438476467656
1610, 9.676369522404457
1611, 14.553744606415876
1612, 15.63067032582012
1613, 8.206655965417667
1614, -1.2084362359287297
1615, 8.608727727085352
1616, 31.34792805643974
1617, 41.68870662728341
1618, 48.10515108358777
1619, 50.99108229756803
1620, 46.841382406407774
1621, 27.017050640342404
1622, 1.1862289711298217
1623, -19.194812889595596
1624, -23.08786830257577
1625, 0.9068207736750082
1626, 36.036434426649066
1627, 35.179569430985794
1628, 30.733220300227003
1629, 30.003696120686527
1630, 29.328019188624694
1631, 23.526826189283383
1632, 8.328959022532217
1633, -9.585093732536734
1634, -2.354377882078097
1635, 14.81828305493491
1636, 25.888823798333306
1637, 15.463662795943492
1638, -4.078881875635943
1639, -15.87629350169209
1640, -7.194715331761017
1641, 1.2931427322082527
1642, 2.696812318251432
1643, -2.988768534927658
1644, -5.3299748783483665
1645, -0.3792304086805416
1646, 5.796281967935556
1647, -0.16635932387816865
1648, -1.041943186799017
1649, -3.0111936903372225
1650, -13.344108930413313
##END=



