a,b
320, -57.49638516578125
321, -41.066657152236075
322, -27.46468062533131
323, -11.961262351056575
324, 0.25451152174900926
325, -1.4340248704411351
326, -11.73177275180933
327, -9.760786373517476
328, 5.319419401133928
329, 20.212294315711915
330, 32.84952568571134
331, 52.564487972475035
332, 85.75770408158314
333, 128.78328576110653
334, 164.24810043982325
335, 196.07241922554022
336, 235.14085242825786
337, 279.50252027659735
338, 313.17566853870085
339, 334.3910163658147
340, 361.8068161234969
341, 402.499349999307
342, 439.20767930453076
343, 457.72913818445704
344, 467.37371559734856
345, 485.3795278507514
346, 506.8128582569061
347, 510.87605508846354
348, 498.2560874362298
349, 495.09155356055635
350, 507.2575965295273
351, 513.5250306955186
352, 502.9555144096521
353, 486.3698272310212
354, 476.0192868196027
355, 469.22098316897245
356, 459.51149384588643
357, 445.34546264479104
358, 420.33881088669295
359, 383.60206947329425
360, 335.1010415643832
361, 274.88179512005263
362, 207.35917592108854
363, 135.30698335956185
364, 82.39363945033983
365, 57.21047159988302
366, 49.618588111716235
367, 37.35030483052833
368, 19.318873442600307
369, 2.029648513196662
370, -14.23420054050439
371, -20.80208896674958
372, -14.869411886915259
373, -4.4926553039913415
374, 5.40464751080799
375, 9.1191341092308
376, -3.73271581028348
377, -26.763883324580092
378, -42.241811787995175
379, -49.80682781381256
380, -46.453058745779344
381, -31.993836398576605
382, -17.317654314208994
383, -5.2304251458281215
384, 2.710953030788005
385, 5.155701004438015
386, 1.382829417472749
387, -9.487931473960998
388, -24.291969758187406
389, -32.76597987603418
390, -36.002744767976765
391, -39.40305131108107
392, -43.016085901594124
393, -33.080898706119115
394, -4.638298767780725
395, 17.61116658625724
396, 17.698224525864134
397, 5.003786824821873
398, -8.621875145674494
399, -22.13920430300459
400, -31.34009002734456
401, -34.65160559377364
402, -22.242842888310406
403, 5.718044178958735
404, 26.523003252081253
405, 36.29139106448565
406, 49.96170842798347
407, 75.5157282416967
408, 113.66552280168798
409, 155.177143796991
410, 196.86702491361393
411, 233.05457011840008
412, 261.8922411005933
413, 277.6428128128264
414, 281.85847694424956
415, 287.4492125422985
416, 296.81685993710016
417, 311.4499730131138
418, 331.7631671064282
419, 350.96290170376415
420, 364.8252578023694
421, 371.9771111287064
422, 370.7676927596913
423, 361.84923934409926
424, 346.67821250366615
425, 325.55507762259367
426, 299.4773808127484
427, 269.5533677444546
428, 243.7463777921348
429, 223.18734272091933
430, 196.15087334329291
431, 158.10092143329712
432, 116.59594606582141
433, 76.94706033958391
434, 44.88381320994995
435, 14.583073267474902
436, -8.068086570492596
437, -4.128325489837152
438, 19.515574104087136
439, 30.691733164088873
440, 25.19490651891465
441, 16.07334568769511
442, 7.780632641801276
443, -0.8079014412087417
444, -10.529356217131863
445, -7.119904056200539
446, 20.09828405533517
447, 53.29403055171315
448, 64.81712733939821
449, 64.88635426147266
450, 75.99060727318647
451, 94.0438726484881
452, 100.70436959894323
453, 96.73075272038113
454, 99.34463916284403
455, 110.4296988629103
456, 109.83182988943736
457, 91.21194747337358
458, 71.70033259016236
459, 60.909059634650475
460, 50.28691196076397
461, 31.419342049570332
462, 12.918027734160205
463, 2.3724850290582253
464, -3.3756725640978402
465, -11.453533876678193
466, -21.556283137597347
467, -27.187865844320186
468, -27.527980286089587
469, -19.193433387208643
470, -0.9823552646794269
471, 19.253966955649958
472, 37.68181616665788
473, 49.55809147765103
474, 51.73602325020147
475, 41.33129376366196
476, 15.03429357638015
477, -14.322345944512563
478, -27.936328900575973
479, -27.065838454036566
480, -12.958685573816183
481, 11.763410342044153
482, 29.16085936181298
483, 35.79989675725119
484, 37.826774965384175
485, 36.8793305120289
486, 35.65344940527211
487, 35.23454713770843
488, 36.93648387155554
489, 41.59457875714543
490, 37.12353324887226
491, 10.71614786428836
492, -20.071304458959276
493, -29.71460107695748
494, -23.91107921629373
495, -16.43200342647833
496, -8.299183875782546
497, -2.847195077461947
498, -0.5767041699145921
499, -5.3725685171611985
500, -17.618823841312405
501, -25.81491513650508
502, -26.731095618564723
503, -20.98193611932402
504, -8.25037119645458
505, 12.458502017147111
506, 43.00113049522042
507, 79.96170074989095
508, 118.85327501876964
509, 151.75407543102847
510, 178.86592330689018
511, 203.37712045364606
512, 234.8425411307344
513, 273.0135375634345
514, 313.7466767459391
515, 354.0192225127321
516, 374.97448308113235
517, 373.6769366571698
518, 363.0858499964379
519, 347.3639362710128
520, 328.2326051408054
521, 306.5387068167838
522, 286.47759000780206
523, 271.06199102436403
524, 254.04010843246942
525, 228.39808151343277
526, 193.53407732184496
527, 148.43059875440304
528, 95.98622093619451
529, 53.15683528041154
530, 18.637583517709572
531, -1.2856832070192468
532, -7.6106282520449895
533, -0.52580794725327
534, 18.595766437600105
535, 32.186057488905135
536, 34.16597619796994
537, 31.68542554441956
538, 27.305826574984167
539, 23.016421742782768
540, 22.149146537820343
541, 28.495560641329575
542, 42.704682885467264
543, 54.08444413370489
544, 50.783559070032425
545, 38.468101646447394
546, 26.36005183513771
547, 15.371243546449477
548, 8.85516831624409
549, 7.597371476944318
550, 15.956798011115097
551, 33.17041739023625
552, 48.430858332149
553, 59.44369321126942
554, 58.424090768146925
555, 44.67508296079359
556, 27.123478499601333
557, 8.49239109456903
558, -5.433882669280138
559, -14.053854834632148
560, -14.496203399981823
561, -4.8725340879664145
562, 0.36750218162887904
563, -9.84480950742909
564, -18.23367207404044
565, -5.9066658319770795
566, 14.918898462872676
567, 24.383551707333027
568, 25.397410351968574
569, 24.474823075835957
570, 19.510205295622654
571, 3.958582857503643
572, -16.127464809958838
573, -19.36959210500754
574, -8.019777960822466
575, -3.6594411847963784
576, -7.63068871235555
577, -8.319623138706447
578, -3.3493007662273158
579, 7.20417111788629
580, 23.845006407809706
581, 38.55633802058219
582, 48.657499239878234
583, 56.97829996112341
584, 64.83055984190105
585, 61.285423957970124
586, 39.07048487858265
587, 15.014427636173423
588, 5.722139588338905
589, -0.39777161846541276
590, -16.985240141419126
591, -29.441529890313177
592, -12.609264799721132
593, 17.427244690310545
594, 23.589198020727054
595, 14.227976357282387
596, 15.576837295360747
597, 23.06980710075186
598, 15.259634562775318
599, -3.7131888171716128
600, -6.47726374172089
601, 7.3500410824617575
602, 22.103870054101208
603, 33.3005755586928
604, 33.808859178390776
605, 23.130903211831537
606, 13.768936117647172
607, 8.54595586744108
608, -4.327470621812608
609, -29.61029926237825
610, -39.337315813016176
611, -21.217707477091608
612, -4.576777155303716
613, -5.380964124395177
614, -7.022823223142041
615, 2.2905402918586333
616, 8.846519925589746
617, -0.9118221689950587
618, -12.241455915891493
619, -9.025583344528059
620, -0.39139847809019557
621, 0.7097428399792989
622, 3.5112326609032607
623, 24.94845316338251
624, 58.031703033419035
625, 79.35909861564687
626, 92.04457661589731
627, 106.47395090609825
628, 121.11865592201138
629, 129.12308678545014
630, 133.58736828309702
631, 148.92027162078375
632, 172.46268132633486
633, 184.1446308803079
634, 183.66955773219888
635, 185.06162006355044
636, 189.21825905658807
637, 185.67407024168642
638, 173.55304480684208
639, 164.35560039697884
640, 160.66451971395327
641, 159.85498346839086
642, 161.05737658983526
643, 162.60039626992875
644, 163.29832936694766
645, 150.08229451150328
646, 118.2109709050128
647, 84.05608758915878
648, 55.340684893131765
649, 37.459467767199385
650, 28.51479506537362
651, 24.829329842013976
652, 24.258506822416166
653, 28.230431150934237
654, 35.42094591828936
655, 40.23231550067976
656, 37.79016005796075
657, 30.82275717394623
658, 22.109984619406532
659, 10.48376799142352
660, -4.391228865279118
661, -13.675916348556711
662, -4.224806778909624
663, 11.212279815010334
664, 11.654253501097628
665, 0.3568277779613709
666, -16.485705857201538
667, -32.88371519379507
668, -35.527278024683255
669, -27.093534706846185
670, -12.967675337400578
671, 2.938264272039305
672, 9.627490815648343
673, 7.742845104077787
674, 1.4469376682263828
675, -4.786180896277074
676, 0.8135613057402225
677, 14.171506267171935
678, 16.88795765984287
679, 10.114602571906289
680, 3.4882726424721113
681, -1.8589716474207307
682, -6.903601679300664
683, -8.425919226757287
684, 10.04617664421221
685, 46.17529601518345
686, 69.36020782447395
687, 76.3864807041682
688, 70.77135763923889
689, 53.74819319492508
690, 29.440573686114476
691, 2.110167526049736
692, -5.781853980062806
693, 5.054689874548785
694, 10.890847489503358
695, 7.4014227569978175
696, 0.7330707184182756
697, -8.539666874483373
698, -19.997608458770628
699, -32.912247707678944
700, -35.42394842827889
701, -25.450507755042054
702, -7.177917637694918
703, 18.234138641288155
704, 36.68235158406969
705, 42.588551455864945
706, 39.24111520569568
707, 34.076337836650964
708, 54.44881013614122
709, 107.29402315107109
710, 159.5543121158098
711, 202.97953124232117
712, 230.05333422678177
713, 239.45628259504247
714, 240.81127723514055
715, 237.54929844541766
716, 237.47201543811843
717, 241.72838060488448
718, 235.64289767263472
719, 215.67678502858507
720, 193.23866893804825
721, 171.83287916661357
722, 151.71010530921194
723, 132.32645009346197
724, 105.52965210831826
725, 70.09932137773467
726, 50.16191481532405
727, 48.05894329954663
728, 50.953038423546786
729, 49.94678305526395
730, 42.51759769043656
731, 28.409522552682574
732, 14.166728604359378
733, 3.5647814661097073
734, 0.2061923481305712
735, 4.336872705036512
736, 6.690223685936871
737, 3.7813764297297894
738, -6.591689077933552
739, -24.422080930901757
740, -31.75024992557428
741, -25.58921675808324
742, -23.87250453069828
743, -29.92793561957751
744, -29.481779722054853
745, -20.042224829900988
746, -14.008525052004188
747, -12.74525875072868
748, -4.08547825190908
749, 12.896946016127913
750, 15.112509639831842
751, 0.9846247671512174
752, -0.14868980688424926
753, 14.829620698016697
754, 23.917102109680854
755, 23.77504019284879
756, 21.764984377821747
757, 18.972466833854014
758, 13.519515092248184
759, 5.752303682879756
760, 0.17376195113320136
761, -3.053460831171833
762, -3.7926764922030998
763, -2.186083302732186
764, 1.2540488246240784
765, 8.0951176554845
766, 24.969952103392643
767, 46.42303505855307
768, 50.20209314362455
769, 39.90875462968779
770, 38.35098543972981
771, 44.11992543131328
772, 44.78383193595437
773, 42.00624591257383
774, 44.261492464377625
775, 45.74572686625743
776, 28.292933615270158
777, 1.7217978842236334
778, -5.883800622847048
779, -1.8298537358259637
780, -3.946949067802052
781, -5.299632764453236
782, 10.171807038337647
783, 30.374639052797647
784, 28.377811108172864
785, 17.885765961396828
786, 22.082967656780966
787, 26.71605318832735
788, 10.92140128961546
789, -5.4730111483504515
790, -0.48627548485819716
791, 12.23162960339414
792, 18.581830033674123
793, 24.23012068814478
794, 35.52587058210338
795, 42.637053420303346
796, 37.8034396108078
797, 25.80254682796476
798, 10.03831521153461
799, 0.22629737334227684
800, 0.293053985295046
801, 2.914397272428687
802, 4.958772314879752
803, 14.080857255915362
804, 33.50173741510662
805, 45.54225848867645
806, 44.8663675964317
807, 40.47858935944532
808, 34.9910771184168
809, 26.189727393722023
810, 15.11075467190767
811, 16.574694910742437
812, 30.160777002049144
813, 31.07822582670451
814, 17.236472059184052
815, 0.04423333440445276
816, -15.950282565911039
817, -19.832739404525455
818, -12.53367855637498
819, -0.5756834207068096
820, 13.230417662971377
821, 18.959628547504508
822, 16.587042111515075
823, 7.679084184243948
824, 0.885059637381346
825, 11.26934367371723
826, 24.848515864256115
827, 18.030455193709713
828, 3.2459195933488445
829, -2.225478415451107
830, -3.1076925435518206
831, -3.9572358541508947
832, 1.5540077250170725
833, 19.146922675746282
834, 38.58720569789784
835, 50.164969621255295
836, 56.53549041374936
837, 59.275726857415975
838, 62.717848714829415
839, 68.71803814163104
840, 77.94551630474689
841, 89.86319976374125
842, 96.68436146908425
843, 96.03358647698496
844, 85.43838020091243
845, 65.70433366323687
846, 44.13303423547222
847, 22.226696965211886
848, 3.799980851366854
849, -11.083235519010486
850, -18.226509338710457
851, -17.591812610817215
852, -8.328499518916942
853, 6.263414376588116
854, 19.187815413267344
855, 23.929784638071396
856, 11.88359150398719
857, -4.036562894807503
858, -9.344822677945558
859, -6.8365757978417605
860, 1.6963056401382346
861, 7.63683568581655
862, 5.976373255960425
863, 8.735305533705287
864, 21.24474320229001
865, 29.317073117916152
866, 29.166583186288335
867, 31.93846810573541
868, 38.967300401354805
869, 37.91209298905051
870, 28.497613073994216
871, 22.050235854036146
872, 17.497167989420632
873, 4.736255805215478
874, -11.886166288404638
875, -20.58901203539972
876, -17.516394737939663
877, 5.736312786321832
878, 35.242608466302045
879, 45.60458366899638
880, 47.56805027916471
881, 52.88522434385686
882, 50.70838513576655
883, 33.22839004668458
884, 17.409380862138278
885, 13.420249283535668
886, 5.2804746481406255
887, -11.591903750853817
888, -11.947873336564953
889, 8.648169606769443
890, 29.368576257737004
891, 42.946318322708066
892, 40.35290404380885
893, 26.02952865894349
894, 19.399716347178583
895, 22.300423696688085
896, 28.569094771781238
897, 35.48604181307928
898, 38.68947181566455
899, 30.555296846150668
900, 2.1534188094647106
901, -20.57677952922586
902, -19.62592979341389
903, -10.000934023188165
904, 0.7159855553782108
905, 9.323309294365572
906, 13.815422492438302
907, 11.161719505242218
908, 2.2318031491986403
909, -1.9904698968875891
910, -0.5344625458592418
911, 4.530515735142217
912, 11.622441744594653
913, 15.001581985717166
914, 15.921586719178777
915, 17.495954880571844
916, 19.317895055450208
917, 20.734952003234866
918, 18.639613772352277
919, 10.573299759804286
920, 7.904237928913972
921, 15.92889705181642
922, 30.31349832113574
923, 46.788463238724944
924, 58.309702642094635
925, 62.3902959092311
926, 54.943435352985034
927, 39.60321071323506
928, 32.50257166465235
929, 37.054654454546835
930, 46.59353110261782
931, 55.48897858534747
932, 54.801945204661024
933, 42.716916974251944
934, 17.66507783655561
935, -1.4113173993737291
936, -5.368727878601931
937, 1.5269075928881648
938, 17.19440423058404
939, 29.087561902821108
940, 33.41044127427904
941, 27.794999587041275
942, 14.41045714124084
943, 3.0940426339102487
944, -3.12279361979472
945, -0.5630426641191661
946, 8.84587050655773
947, 22.331711485707274
948, 29.653525539891234
949, 22.14992316563621
950, 11.956353825224141
951, 5.935253097601162
952, 0.3444605141921784
953, -5.9354864040860775
954, -4.47921905876683
955, 3.069572318513565
956, -1.6821342971543345
957, -12.901221414307656
958, -4.824089860897402
959, 15.622357793050469
960, 30.875959110482654
961, 34.51461831753295
962, 19.833880424112976
963, 2.797990587716413
964, -5.6883659962622914
965, -8.457027181279955
966, -6.526735298739368
967, 1.0127330205950784
968, 11.037398574025246
969, 2.2313093660804952
970, -17.604085623893297
971, -17.48255553575018
972, -4.958213538091513
973, 2.562210002382926
974, 8.538133396373269
975, 16.139695842775836
976, 21.117384756384126
977, 20.889863857439195
978, 17.567809365902576
979, 11.908913309064701
980, 3.5566394375873642
981, -5.481123199534522
982, -8.307299239439999
983, -7.00847838079244
984, -8.702392015922669
985, -10.34652868147623
986, -6.531078002245522
987, -5.240786435806513
988, -13.220017273595658
989, -16.604899776138154
990, -9.979409523768481
991, -10.534030286266898
992, -19.442982341014613
993, -14.225776525260699
994, 4.959715051199964
995, 25.771744226779447
996, 43.34497529474993
997, 51.56227184310865
998, 50.48935620620068
999, 40.462101455613265
1000, 28.08782314295695
1001, 17.403222933187863
1002, 14.356347091254065
1003, 17.64445822673497
1004, 10.768386694758192
1005, -3.066744805743838
1006, -8.769246513737016
1007, -5.059872709355659
1008, 9.343277319172557
1009, 33.27505946871497
1010, 66.28662801800601
1011, 101.39107523922848
1012, 135.1393422322999
1013, 148.8349073984691
1014, 138.08678820893965
1015, 111.80371629557794
1016, 76.38916540910941
1017, 47.5040627825374
1018, 34.758494336594595
1019, 43.3602674975873
1020, 58.150147883890895
1021, 60.31380041798457
1022, 61.06438917174455
1023, 64.99630756858551
1024, 62.97878190485153
1025, 54.150623727014136
1026, 46.11032118628191
1027, 36.390136524528316
1028, 16.008948727519055
1029, -1.7935123417664727
1030, -2.272271819279922
1031, -8.941691389893094
1032, -36.22694446020523
1033, -39.81062338767788
1034, -9.060929616434805
1035, 14.434747468046226
1036, 26.314954381495227
1037, 38.02702348767434
1038, 40.95362232547359
1039, 17.586069173637043
1040, -6.724324778389928
1041, -9.772447107089647
1042, -11.159328586460106
1043, -18.529379049055024
1044, -18.822958057670803
1045, -11.964581113669738
1046, -10.997359564695216
1047, -17.218513295667435
1048, -30.925483818602515
1049, -47.36512025673801
1050, -61.23410946581498
1051, -63.04734490530973
1052, -48.53477957425093
1053, -31.357186065429232
1054, -18.295859438187108
1055, -28.610237936556587
1056, -53.981364450261935
1057, -68.54724021127095
1058, -71.40782360121193
1059, -61.29647593424943
1060, -27.888719096615205
1061, 34.00522611884844
1062, 91.84415844447722
1063, 145.3510535962514
1064, 223.08922618872202
1065, 333.52133506868176
1066, 482.2187489655744
1067, 636.3328406989094
1068, 796.6398276981699
1069, 958.8758526142492
1070, 1117.416540686807
1071, 1237.8127376775292
1072, 1318.1627428179627
1073, 1389.548118150723
1074, 1445.0613437420297
1075, 1462.551352656802
1076, 1448.081018734686
1077, 1407.542769331164
1078, 1317.5310091513975
1079, 1173.6695279817832
1080, 1029.1172744465366
1081, 892.159507709297
1082, 750.1988620497632
1083, 607.5578530532457
1084, 473.57001624772874
1085, 329.94849011421957
1086, 197.28603312491668
1087, 95.18447197279056
1088, 24.169790574386752
1089, -30.425178578635496
1090, -67.4726297384932
1091, -69.23764268790364
1092, -55.78828402835734
1093, -52.54303503706706
1094, -57.54654113100605
1095, -68.69406399257605
1096, -70.30471621711331
1097, -60.02240154165611
1098, -44.47409093160968
1099, -26.896332357866413
1100, -13.054716572900361
1101, -6.960196317865666
1102, -11.567465634200744
1103, -14.030354653081304
1104, -10.434961240736811
1105, -5.222821979300534
1106, -0.9871661262113776
1107, -3.3550086477316654
1108, -6.607134455164669
1109, -4.0967425446660855
1110, -7.273446192958545
1111, -19.85208895012238
1112, -22.63394863387657
1113, -14.406324852574471
1114, -4.811910538309348
1115, 6.443844141533191
1116, 20.70246221342677
1117, 31.28847593804585
1118, 33.64156411126896
1119, 19.313970222412536
1120, -7.71453755300081
1121, -21.6696100908066
1122, -22.556564038716715
1123, -13.299016537693205
1124, 3.9972099201067977
1125, 26.822803086137355
1126, 25.708635461596714
1127, 0.35407155943357793
1128, -3.8776918339672193
1129, 11.742866371920172
1130, 34.373333085843115
1131, 53.21041680319922
1132, 60.32509574103278
1133, 54.705555691823065
1134, 41.08225137346835
1135, 50.83136006769655
1136, 80.72702573200968
1137, 107.25567538608902
1138, 118.67482877362454
1139, 106.37746314261767
1140, 97.98777990415329
1141, 101.23815712740816
1142, 101.06725204281247
1143, 96.40484076096345
1144, 90.0110887516812
1145, 76.84814059421205
1146, 52.71305749943349
1147, 25.839375720554926
1148, 4.254122017531699
1149, -1.618743243384415
1150, 0.6012379068260998
1151, -7.8961094493097335
1152, -10.58874660649235
1153, 5.556656683696019
1154, 12.835039042405697
1155, 6.564104644855433
1156, 15.648302747084017
1157, 28.463094861990612
1158, 16.961252588557727
1159, 8.85645028727231
1160, 22.73617485289651
1161, 17.6246062085047
1162, -10.364703407660272
1163, -29.66002620162817
1164, -38.68714625687335
1165, -38.18725843386528
1166, -24.30265509045421
1167, 3.4116830775283233
1168, 17.514551627232322
1169, 14.021832781995727
1170, 4.956285999443935
1171, -1.97392475646393
1172, 0.37339416810300463
1173, 5.29142617332036
1174, 11.164563357892803
1175, 26.662606589268762
1176, 48.34606913979496
1177, 57.54771502008589
1178, 68.4190075671886
1179, 93.30672879118902
1180, 108.12042398428821
1181, 108.21309209274932
1182, 111.49738543435342
1183, 113.15123196386139
1184, 100.69016141474822
1185, 80.43984844344413
1186, 57.00637100548556
1187, 34.210540087317895
1188, 17.645747578711052
1189, 9.530431440462053
1190, 10.746171021834925
1191, 22.133465439635984
1192, 19.890698368521953
1193, -1.0385855322265343
1194, -15.258128680702612
1195, -22.47437919436834
1196, -27.812957573455606
1197, -24.342274488440125
1198, -8.383332597977642
1199, -0.4534573471173644
1200, -1.7597145771951546
1201, 0.5319110005057155
1202, 8.16066488348315
1203, 22.368321436730184
1204, 39.775339901700136
1205, 54.71407798275595
1206, 42.47826252208688
1207, 17.734870600481372
1208, 17.79869847785085
1209, 28.15016539339649
1210, 37.35479051089169
1211, 50.934100905436935
1212, 63.5782139918374
1213, 55.79066649428023
1214, 36.70569571356282
1215, 17.13554799564463
1216, -0.3243605467650923
1217, -15.47499851356406
1218, -22.762849034604187
1219, -18.474248868868017
1220, 2.6059524022939513
1221, 10.645357501838589
1222, -5.241145020138902
1223, -7.9927537977155225
1224, 1.7898455189988454
1225, 9.777223484652495
1226, 9.681366180288933
1227, -1.3991210937383585
1228, -12.879492981446674
1229, -19.031604330113623
1230, -8.168367302713705
1231, 5.770114943412409
1232, 7.911066887657398
1233, -0.9251172583699372
1234, -12.776104698474228
1235, 1.3555941462673218
1236, 22.28479132931443
1237, 19.290732678741733
1238, 12.665446719014653
1239, 15.027109251454021
1240, 39.42133911400924
1241, 71.19238344490623
1242, 84.98546121418622
1243, 71.34604656782903
1244, 30.7660297999837
1245, 0.10068254875477578
1246, -10.875312682960612
1247, 10.642709175441269
1248, 46.5292106121442
1249, 80.14123520830981
1250, 93.8251779063985
1251, 84.51855064723895
1252, 54.05214080331734
1253, 28.26073330645977
1254, 29.687183812207877
1255, 61.03327380270002
1256, 106.93457411327654
1257, 131.6606679153747
1258, 119.89259319265511
1259, 65.00390375978259
1260, 19.993358611560325
1261, 3.2085422615755306
1262, 17.912013820078755
1263, 46.9207271620744
1264, 69.38829952428023
1265, 71.84982596012196
1266, 56.327640130395594
1267, 42.335130362277596
1268, 29.413887282148607
1269, 15.752434876286316
1270, 4.794366315667503
1271, -1.1639418858330828
1272, 6.623501734896308
1273, 20.85937511594784
1274, 31.194499459686995
1275, 29.62068733631895
1276, 17.935133655841128
1277, 10.515182331367214
1278, 5.636668840004859
1279, -0.10285004969591682
1280, 6.7409271214855835
1281, 21.826752551809477
1282, 14.441209203508151
1283, 0.875383694188713
1284, -2.4435210224501134
1285, -14.768297121560863
1286, -27.176838176342244
1287, 6.155480827706015
1288, 45.63451917065049
1289, 52.54951640083618
1290, 55.26909080385576
1291, 51.724523942466476
1292, 15.827006993201394
1293, -12.867022850815374
1294, -8.655173085151546
1295, 7.908381548757461
1296, 29.532151626707673
1297, 45.75915040999553
1298, 49.81252823587147
1299, 38.67430106915526
1300, 21.58435362840919
1301, 5.743153420749877
1302, 2.408220516171241
1303, 0.8710943593514457
1304, -3.9883899982532967
1305, -6.466797778663022
1306, -5.228333126808138
1307, 0.7012996953708353
1308, 8.300060298574863
1309, 13.859535596680871
1310, 8.39304151441138
1311, -5.838794020228306
1312, -23.64367762369693
1313, -23.511561384769266
1314, -6.012986011902285
1315, -0.9486553843435104
1316, 1.6599884305796877
1317, 12.696849346766612
1318, 17.226335042725623
1319, 16.41762589389964
1320, 23.933003791218653
1321, 20.882313844006603
1322, -0.017722410535498057
1323, 9.462066336201133
1324, 39.423846896288524
1325, 49.772291265751846
1326, 50.955961411976205
1327, 46.25010389491035
1328, 23.169537828771354
1329, -1.6168867777641935
1330, -4.177262934351347
1331, 3.895988090388528
1332, 14.287382592241556
1333, 9.91471155050931
1334, 1.1520044828903337
1335, -2.596464194208238
1336, -11.214979715937261
1337, -19.35085673425783
1338, -9.38312684914763
1339, -5.454286689554465
1340, -15.282548657599364
1341, -3.9943747827701372
1342, 17.464452754991726
1343, 24.96070766178309
1344, 26.67400351570177
1345, 23.290218383899628
1346, 6.896427026125821
1347, -3.1148236742274094
1348, 5.997686715208147
1349, 11.596697599634354
1350, 12.169121044892563
1351, 16.320743910227065
1352, 9.662800823704856
1353, -6.188758245256395
1354, 4.51870242104269
1355, 22.01922712395026
1356, 18.343183731684803
1357, 31.885840269810615
1358, 57.51467706091353
1359, 57.729353191733026
1360, 56.554285801516016
1361, 64.82585013487551
1362, 46.566331502602225
1363, 21.488041836921184
1364, 27.765070781419126
1365, 28.414749096415107
1366, 14.603430666097665
1367, 0.12287310024930775
1368, -3.1086478491633898
1369, 11.331321743999979
1370, 25.72755302209862
1371, 34.623086393508856
1372, 36.49365755644794
1373, 22.724854495064392
1374, 4.638091015754981
1375, 32.594064995631925
1376, 49.23002902488588
1377, 14.46517939783098
1378, 0.537249759822771
1379, 4.341100186334188
1380, 0.33956527668851777
1381, 18.68396333671717
1382, 58.66399971251667
1383, 67.92153261267049
1384, 74.98232087663018
1385, 98.16773034824018
1386, 85.37054414498834
1387, 46.0833534008616
1388, 12.11728756062439
1389, -7.24886712015541
1390, -12.53487273994142
1391, -8.657173193229028
1392, -1.9022140970155306
1393, 6.002850343908904
1394, 28.024007704180804
1395, 48.28365894598301
1396, 43.98401662638025
1397, 28.979613122176488
1398, 11.441895686367388
1399, 2.029376516258708
1400, -0.4798236301739962
1401, -0.22642033618467394
1402, -13.145918691397128
1403, -26.60704979613911
1404, -25.305317069733974
1405, -11.258488787540045
1406, 10.462150981580635
1407, 30.644678887365444
1408, 50.08010952562381
1409, 62.514142624312626
1410, 44.28172609992998
1411, 23.975565792622547
1412, 19.811165077792793
1413, 6.729644125796767
1414, -5.5374269949470545
1415, -2.144213272656998
1416, 0.8396920719596892
1417, -0.9170575226189612
1418, -7.036688006774966
1419, -11.042177652310784
1420, -11.429629998145174
1421, -13.744233952888862
1422, -6.309483109954272
1423, 16.019591746005972
1424, 18.959228978244028
1425, 16.69273921322474
1426, 36.38127990097382
1427, 50.254052278058225
1428, 51.66199045788926
1429, 42.699100953326706
1430, 21.466624942933777
1431, -2.7385250576307953
1432, 4.722915071891293
1433, 18.878942088939766
1434, 18.731951046816903
1435, 5.214543512106502
1436, -10.609272714285908
1437, -16.47233879678788
1438, 3.0012382242366584
1439, 35.81270612122171
1440, 49.25211760961429
1441, 39.12745941569847
1442, 15.411988602141719
1443, 9.806959911574268
1444, 12.634674383090896
1445, 17.136685988146382
1446, 17.563327261108498
1447, 11.119089724717014
1448, 2.42685899242133
1449, 23.224535651210317
1450, 51.15330280250237
1451, 53.41769115650368
1452, 41.322711542446086
1453, 22.588051408265528
1454, 7.167250895161487
1455, 16.60807946384284
1456, 41.40308516933783
1457, 35.87353968964999
1458, 9.424696701395987
1459, -18.05451060328778
1460, -3.7564172996708294
1461, 16.354733241507347
1462, 17.457469923198005
1463, 13.233608940342492
1464, 3.019568037406316
1465, -11.076498076798089
1466, 14.736085797980195
1467, 52.111940691024756
1468, 52.55115291871243
1469, 59.91210763706931
1470, 69.78196039361774
1471, 57.38131261487479
1472, 57.72383479295877
1473, 71.18825109473482
1474, 72.63887890462865
1475, 81.20318054819973
1476, 91.72221402455034
1477, 65.02286290714301
1478, 37.393310804756766
1479, 31.337721359914667
1480, 37.24427484853322
1481, 45.249083264193814
1482, 49.21357988231466
1483, 39.540078522264594
1484, 21.51290105974931
1485, 2.297635962721415
1486, -8.889665578446511
1487, -12.806103060347596
1488, -11.435455288855792
1489, -7.602828235911602
1490, -2.50385752302509
1491, 2.532780225712486
1492, 3.087902289633348
1493, -0.14263739247962803
1494, -3.3641496612622177
1495, -2.3632872244729697
1496, -1.2740547854314173
1497, -9.238456488189968
1498, -10.586931473631921
1499, -4.733311184740614
1500, -1.319299375063565
1501, 6.77414396453014
1502, 18.29735251844022
1503, 21.444357545021376
1504, 33.24220087362073
1505, 53.39427972370049
1506, 59.56999283207051
1507, 36.53859945344311
1508, -5.354659769571754
1509, -14.751313623583883
1510, -3.138375700206325
1511, 19.83035542284324
1512, 43.059183340173604
1513, 34.0026035704127
1514, -6.65474419291877
1515, -11.563801669850363
1516, -3.637949232707342
1517, 2.8274283900186674
1518, 18.244668410068698
1519, 17.459678470993367
1520, -5.283817030096543
1521, -5.749603238811233
1522, 6.277965833099643
1523, 18.786105873102315
1524, 17.276246070287016
1525, 10.32463859327163
1526, 5.456196683854159
1527, 5.0938617497135965
1528, 11.725582719881913
1529, 20.94822473694512
1530, 9.356814810236301
1531, -2.7880850070614542
1532, -3.4318004009396645
1533, -9.038745435709188
1534, -12.55207604975567
1535, -8.216626786472261
1536, 2.3345813723822175
1537, 11.08259345651095
1538, 11.566807277470616
1539, 2.9331085388403153
1540, -5.04007440696887
1541, -7.054977214172595
1542, -3.7259129281878813
1543, 0.7171499323253556
1544, 3.0120396228121535
1545, 0.2743869226296738
1546, 3.829539838018718
1547, 14.585690122563847
1548, 12.107511117554623
1549, -3.7472209665825176
1550, -21.031497859888532
1551, -7.912510570090035
1552, 14.964198163364017
1553, 35.74847310990481
1554, 50.19888315734852
1555, 35.3420816114608
1556, 1.6429137363288646
1557, -5.288553463933113
1558, -22.7048706870396
1559, -44.90955032316924
1560, -31.915619032255563
1561, -23.834941367703323
1562, -23.137173476317912
1563, -13.019087033223059
1564, -16.506486314453014
1565, -24.425154000442944
1566, -12.993232722475568
1567, 17.464354639478643
1568, 55.70403131637249
1569, 91.05867405398885
1570, 148.39549182101337
1571, 228.83586993098606
1572, 308.3047223013573
1573, 384.9922953862979
1574, 442.0097829926649
1575, 475.0768608567473
1576, 524.5222607475266
1577, 572.7546854950324
1578, 596.653994284824
1579, 567.0938022077921
1580, 508.4772002565942
1581, 438.46105272936575
1582, 367.1544571589043
1583, 290.32287639613196
1584, 211.05128364610664
1585, 140.13094678910966
1586, 92.59602546619999
1587, 55.8146920790432
1588, 14.23750501225959
1589, -24.280544729418125
1590, -43.84707747455013
1591, -31.021873394943213
1592, -17.03231731537153
1593, -16.410290027839892
1594, -33.375338866623224
1595, -48.113565998446575
1596, -43.77882692394269
1597, -19.16542118181087
1598, -1.5885579244240944
1599, 13.12924774126077
1600, 25.67514507378246
1601, 31.779679449898595
1602, 25.096413130752353
1603, 10.301892756982397
1604, -0.3878474355110484
1605, -8.296210497404445
1606, 3.2165312690322025
1607, 42.08720942100945
1608, 33.28923075514467
1609, 22.44901961353162
1610, 35.831339185704564
1611, 9.672180859407945
1612, -3.365909470386214
1613, 7.39214903939137
1614, 0.24625932861181354
1615, 15.487438664643832
1616, 37.04825894103851
1617, 16.474518844928298
1618, -7.321353625939537
1619, -7.230532430244239
1620, 26.69967902313374
1621, 40.55602535897469
1622, 31.284957692767875
1623, 5.051359814797252
1624, -26.21637858285885
1625, -16.884539387852783
1626, 24.743841894122852
1627, 38.22247724578165
1628, 36.60184338156523
1629, 20.371488379158563
1630, -8.052711860667841
1631, -5.867224095927213
1632, 11.97813442505776
1633, 28.972880792795422
1634, 40.05446634947748
1635, 35.30678798352801
1636, 13.192006416899858
1637, -14.711309681555122
1638, -7.113817271057087
1639, 18.34645067264637
1640, 23.388175230044453
1641, 13.204509913370202
1642, -7.921571564640544
1643, -25.41709488282231
1644, -1.028903970223837
1645, 12.636837826919873
1646, 2.779726999205195
1647, -7.15813115275887
1648, -11.611197884044941
1649, -3.470492029298839
1650, 16.238397600797725