##NAMES=
##LOCALITY=
##RRUFFID=
##CHEMISTRY=
320, -1.02924120124635
321, 3.2631264710089454
322, 3.241113753387708
323, -2.3845076084362518
324, -10.139850640287023
325, -14.284971517517079
326, -14.742174328270721
327, -10.121242444296968
328, -0.8061332978113569
329, 4.543222345562299
330, 3.7011248420458287
331, 1.8711888064590312
332, 2.0959098446883218
333, 2.3310010162299477
334, -0.015562247805974039
335, -2.759683839663012
336, 0.5134080335465114
337, 9.377287172922024
338, 17.651815947605883
339, 23.210589242471087
340, 26.565623770173715
341, 27.909193189523194
342, 25.944116507870604
343, 19.6030457365664
344, 17.266814759250792
345, 30.590268046927577
346, 52.49170675050209
347, 60.99574640971241
348, 55.130321167212514
349, 46.61260517544133
350, 38.230993068571024
351, 26.51941705662375
352, 9.691985099546855
353, -1.5247984663765237
354, 2.7911959697016755
355, 15.336529952648561
356, 17.250032347260003
357, 10.769690408187671
358, 12.379452794094504
359, 23.53786270840601
360, 32.087041401274746
361, 34.72127662059847
362, 35.126300467645706
363, 35.61781817189376
364, 34.868679880938544
365, 31.062033834712565
366, 24.76760881208793
367, 17.606890924582785
368, 9.572719960050108
369, 1.0167784060949998
370, -8.456905495473166
371, -11.068247529677137
372, -4.1434035233660325
373, 5.781002706989966
374, 14.714299495830346
375, 21.698903750583213
376, 26.17737340909298
377, 27.808766614832166
378, 25.60978990301055
379, 20.221484498417794
380, 15.902552491506412
381, 13.209044248106693
382, 9.63646846178517
383, 4.331566307436333
384, -1.182418633882662
385, -6.7191756394386175
386, -9.404896584486323
387, -4.665421531700304
388, 3.5618507204512753
389, 3.4789469607844694
390, -3.593742689618466
391, -6.833864426337641
392, -5.388734171114265
393, -6.114343834940428
394, -11.102195356543234
395, -10.758291287027532
396, 0.9721437205544134
397, 11.92901433713405
398, 5.880986994540308
399, -8.268825656887657
400, -10.434418383930733
401, -3.868474591536142
402, -5.38467102671666
403, -15.597796093632951
404, -19.647385398773622
405, -14.220202348131352
406, -7.1915496740280105
407, -1.8428939495465784
408, 6.752455866049331
409, 23.451880170535333
410, 40.29599847833788
411, 44.28873407349829
412, 37.66267329371658
413, 28.641527097854123
414, 22.106430574262504
415, 26.20726503817059
416, 42.51062936153858
417, 66.26182141694107
418, 91.02713395438877
419, 116.09542517154114
420, 141.02453896927454
421, 158.8762248592475
422, 161.30932355419236
423, 152.9286413494424
424, 144.00157145636103
425, 134.8560280663587
426, 125.29992871403738
427, 115.52359295341739
428, 107.19890116985425
429, 100.4617366930297
430, 90.81043104068067
431, 76.51862050192085
432, 62.5138952363759
433, 52.25873197146484
434, 42.36574404027169
435, 28.333045519346797
436, 15.994796931584006
437, 11.294924687402727
438, 11.525899190752625
439, 5.982071755197012
440, -5.662444963201779
441, -12.989574432650898
442, -14.308650501463944
443, -11.994953100790099
444, -6.669250577655021
445, 4.182017084920062
446, 22.988843020482363
447, 42.329715120939
448, 53.47092285099188
449, 55.12025435687519
450, 44.51161654850921
451, 25.58596105580864
452, 13.534330482342284
453, 9.983611685651795
454, 6.486312039013228
455, 1.4508509740094269
456, -1.3945973901995785
457, -0.9857619091840206
458, 0.04198139278878443
459, 0.28974539297269075
460, 0.4539040886429575
461, 1.211733720855591
462, 3.966322576884977
463, 11.283471916205144
464, 18.33322136425204
465, 12.19538223518066
466, -3.98746351688078
467, -11.155768860412536
468, -8.558086355971227
469, -6.437361037903429
470, -6.816932497585185
471, -3.5419404862414012
472, 6.106028725415854
473, 12.956049831614564
474, 10.688508380924759
475, 3.518009866266766
476, -3.367566003415959
477, -9.24421019911506
478, -12.001142082532624
479, -11.42201669530641
480, -6.119857277768006
481, 3.87523841954453
482, 16.159356276797553
483, 28.854109048686496
484, 32.568950226886955
485, 25.294834289681603
486, 13.08447378601386
487, -1.545756024507682
488, -9.280694036443492
489, -4.875126362655465
490, 3.6039714406988423
491, 7.9881272147918025
492, 8.900331717858535
493, 8.050430758504717
494, 5.460744856051406
495, 1.1087518796266522
496, -3.016402608282533
497, 0.8645374786065076
498, 11.690153372994246
499, 11.81110994170831
500, -1.1763534118222196
501, -11.946082357080286
502, -16.640945153537814
503, -15.704054254016228
504, -9.0413936999621
505, 0.2826317922213093
506, 10.299136366649691
507, 17.331221746891515
508, 14.437269204969652
509, 10.962243344866692
510, 22.14307414858513
511, 44.67877809614629
512, 61.839491337555955
513, 73.35414450512508
514, 82.50552592145277
515, 89.71680463194343
516, 95.0639056183295
517, 98.78786700502815
518, 103.96372380855883
519, 111.25287159181335
520, 110.81073971369779
521, 98.00157093990674
522, 80.26071191014125
523, 62.92758500789705
524, 50.05215758907025
525, 51.18371996274527
526, 54.047609127573196
527, 46.230153759579935
528, 31.527646598132378
529, 20.046671744134528
530, 13.199569631840404
531, 6.261160214720803
532, -0.5352211001968499
533, -0.48156589130303473
534, 6.665265333889693
535, 13.308467768757055
536, 18.43931922138654
537, 25.845386521553337
538, 37.07123584114834
539, 42.7416909038875
540, 38.14015711231923
541, 30.08947545462206
542, 23.628846445041745
543, 15.57047522580433
544, 3.9380634272874886
545, -4.445641760811213
546, 2.5620441486325944
547, 18.798765099167667
548, 27.669279889565587
549, 30.62767284525171
550, 34.62940102653465
551, 38.399158855422684
552, 33.33996176054916
553, 20.2910025762053
554, 12.870645876175331
555, 14.110977245098184
556, 12.924551706101283
557, 6.814154147175941
558, 0.7132815661561835
559, -4.26967394729445
560, -5.456667491988355
561, -1.2848387556318812
562, 3.2994260588820907
563, 4.390174285311787
564, 3.2149814751624035
565, 1.0977180427234998
566, -1.126412756433183
567, -2.578380353520515
568, -3.9506984406366428
569, -6.546012159647489
570, -9.24678659051824
571, -8.315922801489705
572, -4.90759427725925
573, -4.442079213368743
574, -6.184880179256197
575, -3.574648451489793
576, 3.324265453145017
577, 4.812278540865464
578, -0.44839572221098933
579, -3.9079981447653154
580, -3.6712792922830886
581, -3.2769833391635075
582, -3.990013771060603
583, -4.336014988645729
584, -3.584271684779651
585, -2.65969105178101
586, -2.1362281964661634
587, -1.7485729749605525
588, -1.2668510184753359
589, 1.7039381447493724
590, 10.32851906556516
591, 17.783161245079555
592, 13.272627262087553
593, 1.6650623336936405
594, -6.267518676598684
595, -7.987229885205579
596, 4.512015546591101
597, 27.955673477438722
598, 44.22206021957663
599, 50.640930465817746
600, 42.04828696210825
601, 20.634781015683984
602, 3.651084406337759
603, -5.132235776103698
604, -2.5708329825561123
605, 10.98083320808746
606, 18.428631087466783
607, 15.20254089807895
608, 7.6825702090764025
609, -1.5949506284991912
610, -6.275975603207826
611, -3.99634030527659
612, -1.2070719386920246
613, -1.4204626182909124
614, -2.55372406970082
615, -3.210412571198958
616, -1.2176881800774026
617, 5.661325614603356
618, 14.556230395374314
619, 20.76225065129438
620, 23.586862755947095
621, 22.028527141622362
622, 15.90153755933261
623, 4.886585350955102
624, -5.441870938991542
625, -4.883848872217186
626, 3.871474218531148
627, 13.240979745514323
628, 24.834242423710748
629, 41.04242385393036
630, 57.62433532456225
631, 56.60816103794241
632, 39.66901671780988
633, 23.89178903177435
634, 11.490730642948165
635, 3.342709458720492
636, -1.1378499226807435
637, -0.3754535667649179
638, 5.23487612389772
639, 8.08546718374464
640, 5.7440035035238
641, -0.8078671879306967
642, -10.589187240234878
643, -12.425049518972173
644, -3.0231222595302825
645, 3.6168760431455667
646, 2.521891011041589
647, 5.651685743266626
648, 18.650045635644346
649, 23.48581618367234
650, 10.768101690739513
651, -0.7435549962483492
652, 0.8558531727039735
653, 7.375037380572394
654, 13.237971757143896
655, 23.777115111217427
656, 41.8014058504009
657, 54.318577448726955
658, 48.09063934323558
659, 28.66482598882203
660, 2.613670295861084
661, -18.459634776300845
662, -21.23377958759147
663, -11.140487134280647
664, 4.6939537169796495
665, 21.83159378675782
666, 29.372190372526802
667, 28.710003712037633
668, 22.988757415214877
669, 17.033173814722886
670, 23.040520091991766
671, 35.45060241671126
672, 43.8117255804932
673, 44.46249368559393
674, 28.703524234831093
675, 3.76372519340066
676, -6.577795193833936
677, -5.850358481812691
678, -7.66088001604794
679, -10.695396878918473
680, -5.727509566208482
681, 5.529871576707137
682, 11.73659556452003
683, 12.770170980455077
684, 16.313999093821167
685, 21.145091331738058
686, 17.011618998577887
687, 6.261834608601475
688, 8.871835494051538
689, 23.997214637014167
690, 28.552426764104894
691, 21.71408999284631
692, 20.00063891354057
693, 24.02982916467863
694, 19.094108536105523
695, 5.163654957046219
696, 1.9853869406356353
697, 10.32398340819509
698, 9.091572060292947
699, -3.426906363623857
700, -5.5366925660550805
701, 5.841630391615126
702, 17.69226488430968
703, 25.834423840047293
704, 27.629042650992233
705, 22.781054517616667
706, 14.785557511253955
707, 5.107731855041038
708, 0.21488048053561215
709, 1.3984008508368788
710, 10.933143543054939
711, 28.6244563653986
712, 33.45233202880172
713, 21.418624667299355
714, 12.090665429039746
715, 12.03588610773977
716, 17.253597349426855
717, 24.763723185931212
718, 27.118372689296393
719, 22.30734545236328
720, 13.367216593225749
721, 1.946714434741807
722, -2.363777069968819
723, 2.349381504867324
724, 9.344094592718193
725, 15.395294709636346
726, 10.55940060300145
727, -6.732578674770139
728, -17.42789206117368
729, -16.80597091848358
730, -8.580411043116783
731, 5.99635765433959
732, 16.699296314023286
733, 19.972180679474604
734, 22.996643037138256
735, 27.571100088603544
736, 29.599942020402978
737, 28.050142043844517
738, 24.811588487913014
739, 20.12158954806182
740, 10.634060309868346
741, -1.8799756780031203
742, -1.3649174493280043
743, 14.147040237927285
744, 17.34660329046801
745, 3.3998953096256628
746, -5.788697178663824
747, -5.64204103853217
748, 5.131299224362465
749, 25.65829015632562
750, 36.48276587378905
751, 33.58504428526476
752, 18.947975535809746
753, -4.250518308464052
754, -16.273780503760918
755, -14.928713671901278
756, -4.486921705988152
757, 12.187701265804208
758, 16.112887618766763
759, 7.616071807331082
760, 9.150057149468012
761, 21.04169305234018
762, 24.48701450613771
763, 18.683950368149453
764, 12.7771243071561
765, 7.2392932423504135
766, -0.6624719749661381
767, -7.754322451519329
768, 3.4235400253337502
769, 27.78330923498652
770, 34.00253017526211
771, 24.856733704820726
772, 20.199635957257215
773, 18.88689613716997
774, 12.114050830810811
775, 2.59709983806988
776, 0.08674651828414426
777, 1.9347858919327336
778, 0.727140070132009
779, -0.4294667659419247
780, 6.636637266226444
781, 17.247553049287035
782, 18.983216951680333
783, 13.315454880421385
784, 3.593291441765814
785, -3.8705851409617935
786, -0.26329613097186666
787, 11.01675581558493
788, 24.423549247373103
789, 31.217071335988294
790, 20.525760601303773
791, 6.007607218050907
792, 3.0623941343774277
793, 6.41488951085239
794, 11.776929668807497
795, 15.852056170351261
796, 16.53215758548822
797, 13.641912158704145
798, 7.2373345805726785
799, 8.50109735672686
800, 23.272723398895778
801, 35.32217376917288
802, 37.000581861651426
803, 30.802118470197456
804, 18.356772490216827
805, 9.536630455314935
806, 8.432256846032942
807, 8.115604337853256
808, 5.491879375197186
809, -0.054907080448174383
810, -8.239599246529451
811, -10.46162493388465
812, -5.5034185825170425
813, 2.893088218822413
814, 13.361753745318765
815, 17.939661630407045
816, 17.53803581415741
817, 21.131857332762138
818, 27.90608069916152
819, 31.11776522564287
820, 30.430866405872166
821, 26.65673814978618
822, 18.523042368321057
823, 2.7752752121323283
824, -11.60253619552168
825, -8.1998734405106
826, 1.4394902841431758
827, -2.104722087025948
828, -7.151130118370929
829, 2.163300622616134
830, 13.356035534952298
831, 12.035473854410156
832, 11.434046122422842
833, 22.29354992957451
834, 27.00686289492978
835, 14.49080706261384
836, 3.318788432032761
837, 3.0035510131892806
838, 1.1594386205301817
839, -6.344621544059919
840, -2.2356383780056603
841, 17.461645585096903
842, 28.02514487474309
843, 24.861944309926002
844, 22.509308412875725
845, 23.31028329023229
846, 23.81006665035693
847, 24.064521833865456
848, 26.587275130747457
849, 30.167019446287213
850, 29.87774583453438
851, 26.06071469823928
852, 20.57784938255554
853, 14.127460265512127
854, 7.9088761945554324
855, 3.9978214706065955
856, 3.9069526098219285
857, 7.216560408359328
858, 13.75607379153098
859, 18.07698559160235
860, 16.228089695833887
861, 11.21052003420482
862, 4.9688342719616685
863, -0.47601977605540924
864, -4.769903203952026
865, -5.4147335279835715
866, -1.6522847319477023
867, 4.338411317187138
868, 12.243088487221257
869, 20.030956851607925
870, 25.104721663067494
871, 15.699109945924192
872, -3.8032995317380482
873, -10.993545238356774
874, -6.163789024555854
875, 6.29684227427083
876, 21.27750006913152
877, 25.670285787672583
878, 23.348298864759727
879, 20.701733450993515
880, 17.093442588092785
881, 11.805618974971594
882, 13.20632366699283
883, 25.055643950052854
884, 25.53852129310053
885, 4.206814988966244
886, -10.597664894839909
887, -10.309687472521318
888, -5.489605205270209
889, 0.7798151734323255
890, 4.997309119669353
891, 5.832726532417837
892, 1.1796383124312797
893, -6.50167060245326
894, -8.962545401846228
895, -3.625329771386987
896, 15.087090502799356
897, 33.41055511428158
898, 26.58570415996428
899, 10.961691666429715
900, 6.542361092010424
901, 5.924868467089482
902, 2.695543678722288
903, 2.656218110599184
904, 8.626260414715262
905, 9.627682108322233
906, 2.9637649697176585
907, 3.775566952345116
908, 13.85457949577949
909, 18.46100649274058
910, 17.323127881260007
911, 20.108159026217436
912, 25.007250815883708
913, 23.71197558164954
914, 18.37828413044349
915, 14.264524102139376
916, 8.33806744433241
917, -2.7482322463104083
918, -8.56757066909472
919, -0.169174825058235
920, 4.999383205112508
921, -1.9565754286386436
922, -3.940904959427371
923, 4.885274840949933
924, 18.146287815672395
925, 32.43022080436526
926, 41.41903852290807
927, 43.744413412795666
928, 38.12575972906666
929, 26.956600508241536
930, 16.47161356801098
931, 8.153565023423425
932, 4.764558639335519
933, 0.9559791861427129
934, -8.724212352713721
935, -9.946615740535208
936, 6.3902063589532645
937, 23.64641945129506
938, 33.32823825659807
939, 34.4094771227351
940, 26.737133144649988
941, 11.113362877136979
942, -5.8411734478888775
943, -5.312281596969115
944, 6.436473163891378
945, 10.241745101656079
946, 10.165536505119007
947, 16.007676709573843
948, 20.87014230101545
949, 19.210351758923707
950, 20.2287589736286
951, 28.301190847626458
952, 25.260126790702316
953, 7.314384430408836
954, 0.6402356309636161
955, 7.6869290140198245
956, 15.53836041470504
957, 20.03208348576618
958, 16.477712189868953
959, 9.121990447333701
960, 6.575896281104406
961, 6.6555070765948585
962, 5.218528759934998
963, 1.6510947432288958
964, -4.127102916467493
965, -9.04661003330557
966, -11.36785343727729
967, -4.265108925441609
968, 11.091017544780925
969, 16.021291500928555
970, 10.51293653954508
971, 3.068057883848951
972, -1.0421703442439139
973, 5.976845570508431
974, 15.930603227191568
975, 18.174977831017486
976, 13.89214257332901
977, 4.224953521443467
978, -3.0598468451505596
979, -5.424832436387078
980, 0.8915419574968837
981, 12.613211852735958
982, 8.015591459321058
983, -7.178411733625353
984, -11.688180053036604
985, -8.563748572289342
986, -3.3339294930799497
987, 6.813539811533474
988, 24.507576752356044
989, 34.21211186531923
990, 30.257582455888496
991, 32.63083912519778
992, 43.694156503769136
993, 43.69315596085039
994, 33.30647164842753
995, 24.920771143054026
996, 16.25814600090257
997, 1.3332404471516384
998, -8.241229506937998
999, -1.7947322997606534
1000, 2.515311706844386
1001, -4.13927211046871
1002, -3.0109733581905402
1003, 9.186559058046214
1004, 12.954020708719327
1005, 8.096728799588163
1006, 5.998806705796369
1007, 5.05336797081759
1008, -0.9587023495153062
1009, -4.101874312176733
1010, 4.308719658247128
1011, 17.052859708903497
1012, 28.7512992607642
1013, 33.89060436546879
1014, 31.656087045256527
1015, 27.56356498106129
1016, 22.36433028686156
1017, 15.515212809475543
1018, 9.133726418515607
1019, 7.9273227633100305
1020, 10.830069453043052
1021, 17.168088203309026
1022, 24.80993938640586
1023, 31.908077770743375
1024, 24.550034454432307
1025, 4.61602989730909
1026, -0.32369828293644787
1027, 8.191688737836557
1028, 19.007542935840547
1029, 28.898559359931824
1030, 35.30645686047387
1031, 28.248009478159247
1032, 2.6569207275360895
1033, -7.82406981203394
1034, 3.3244396274117207
1035, 3.9499509341703742
1036, -6.084450477998189
1037, -6.385743425143119
1038, -0.8656542746155083
1039, 0.6261211814228318
1040, 3.6662109430576493
1041, 13.084198171010257
1042, 9.389088181448415
1043, -12.37793903900456
1044, -16.939761071992507
1045, -0.39448227776279055
1046, 19.8813931935058
1047, 36.31151762320587
1048, 36.95045156292349
1049, 25.40131503845737
1050, 6.286737004862516
1051, -10.430114983981184
1052, -21.087278108147075
1053, -23.120519194652616
1054, -18.633904135513376
1055, -20.87373331036929
1056, -24.556550562808297
1057, -12.836230190579727
1058, 0.4826792519031642
1059, -1.5404870150816805
1060, -6.989933242515235
1061, -9.357157218517841
1062, -6.179845079283041
1063, 2.6287312610652407
1064, 13.216060839353986
1065, 23.066279500628298
1066, 26.23221793442667
1067, 34.116024645912375
1068, 60.31718471482782
1069, 101.21707003158008
1070, 145.71558546911342
1071, 176.12716411561246
1072, 192.40645963603333
1073, 214.54828138638345
1074, 242.3597478902807
1075, 270.5519810701687
1076, 288.3956124891356
1077, 285.76410382276663
1078, 271.5977778513461
1079, 252.3753721925989
1080, 247.36249485505755
1081, 250.4720088459203
1082, 224.49730692968456
1083, 175.05155219800145
1084, 117.62364726360511
1085, 64.89420383327683
1086, 33.10435295002503
1087, 21.300499279716632
1088, 24.10814711529042
1089, 11.792484207809366
1090, -10.628303855490003
1091, -14.772366462909986
1092, -10.424656027754736
1093, -11.149950731933586
1094, -12.100286191305031
1095, -10.901741664248448
1096, -10.628256314568944
1097, -9.707317702977434
1098, 1.66297581107915
1099, 12.732513122643468
1100, -1.011822148829424
1101, -17.922245553580296
1102, -21.583948920783314
1103, -16.67677204465849
1104, -6.0210743379357154
1105, 1.3819972534179215
1106, 2.823964133632444
1107, -6.2208562873267965
1108, -11.615088859975913
1109, 3.354927867439301
1110, 20.821437356673414
1111, 30.229675647811064
1112, 27.172549664556527
1113, 13.845982599867511
1114, 1.0244510295590317
1115, -4.07893370966508
1116, 7.322282242637357
1117, 24.269815496540105
1118, 37.21977370146192
1119, 33.717656229840486
1120, 14.758461801978001
1121, -0.8644021017655632
1122, -10.62118197615382
1123, -14.488248367142205
1124, -11.952122767174387
1125, -2.730484985351495
1126, 4.740877762105811
1127, 9.658855883300248
1128, 20.02721369551614
1129, 30.675744576945362
1130, 30.74178080347133
1131, 31.199576669989256
1132, 40.93650433369976
1133, 45.65191872140326
1134, 41.775784724292635
1135, 38.101809969792384
1136, 33.5612129695528
1137, 22.85673907969658
1138, 15.472982083154648
1139, 20.914322926417526
1140, 21.324425597139907
1141, 12.973308085568306
1142, 10.638451103682655
1143, 15.054949133251966
1144, 22.703748877587486
1145, 24.52630128407077
1146, 12.998523544314594
1147, -1.103747487873079
1148, -11.960202160040808
1149, -10.480968063304772
1150, 1.2671959451681687
1151, 16.487485197603746
1152, 24.49911405640887
1153, 17.535790632611224
1154, 9.653957666117776
1155, 6.248625915829052
1156, 5.102117539121082
1157, 8.09410183771729
1158, 19.797623451036998
1159, 32.30361057154528
1160, 39.98143719883569
1161, 38.856417010805444
1162, 26.437428853925894
1163, -2.5447911189792194
1164, -27.959376568988546
1165, -18.62626559372211
1166, 5.335567145649065
1167, 30.962653558416378
1168, 36.83764305605973
1169, 21.80544085376141
1170, -1.4060640646030151
1171, -14.457256822484624
1172, 2.9579505153785703
1173, 27.367670466003347
1174, 44.73781887457517
1175, 44.00228156172875
1176, 32.65354506981589
1177, 34.23878633564664
1178, 41.86494526136448
1179, 47.64632231450605
1180, 43.66791680434062
1181, 29.167732795808206
1182, 13.57026036945831
1183, 6.542956746262462
1184, 19.803354348576022
1185, 32.34768296723678
1186, 31.106265646857764
1187, 16.87828618145454
1188, -1.0709945891132975
1189, 5.572431364538943
1190, 18.77683162711037
1191, 14.069993924668552
1192, 5.462182636304078
1193, -1.195867914458404
1194, -10.292540629372525
1195, -13.553894065003078
1196, 8.334842685916556
1197, 27.786950101099592
1198, 24.730249239976047
1199, 25.2796105030568
1200, 34.33892223011958
1201, 45.03974791247083
1202, 47.437503409971896
1203, 30.741542054212232
1204, 11.794006148743847
1205, 0.3187575786312209
1206, 2.3255141721949713
1207, 16.472328484006994
1208, 38.939164182813784
1209, 52.538662781167204
1210, 48.66770476943179
1211, 42.25415902519626
1212, 34.89402609795343
1213, 20.698876931690847
1214, 4.385012133184546
1215, -7.860193524667466
1216, -9.208612853167324
1217, 0.2963401905712999
1218, 9.408824635419705
1219, 12.249252583454563
1220, 2.2982255698354948
1221, -7.055430701139585
1222, -9.634786679781655
1223, -3.760993691797239
1224, 4.887565438405545
1225, 2.3675033161237025
1226, -3.0865952982192084
1227, -5.849766903001182
1228, -5.597748028910701
1229, -2.387320269049951
1230, 3.417181547853943
1231, 9.400190876592433
1232, 12.588690911939239
1233, 17.558077400309003
1234, 24.411185262166782
1235, 27.591252765807894
1236, 22.12435816588686
1237, 3.05856378414137
1238, -6.6048404601629045
1239, -2.299031934634513
1240, -4.833404682715809
1241, -9.08789336444488
1242, -1.8445020517683588
1243, 2.891900344948681
1244, 0.5878630594550032
1245, 9.906654675850632
1246, 25.04902707521478
1247, 24.589462228236926
1248, 25.29202378187597
1249, 36.10278563183397
1250, 39.368377669993606
1251, 33.523381611680634
1252, 23.908001181833924
1253, 15.789294296200524
1254, 14.290664163890597
1255, 16.847381345720578
1256, 20.566250816394586
1257, 23.07068420613882
1258, 19.831613751855457
1259, 8.706122239011165
1260, 8.66334656035201
1261, 19.95249717457409
1262, 27.304860666865125
1263, 32.65513471539748
1264, 38.23389522124876
1265, 37.452373161926744
1266, 29.698089765836812
1267, 19.357654513187526
1268, 10.828549784210054
1269, 8.825795841282797
1270, 7.010143240132038
1271, 7.693522737690046
1272, 25.626115370424714
1273, 41.782237088090596
1274, 37.540171179829485
1275, 31.9953771654491
1276, 29.642319522906064
1277, 25.372264358262328
1278, 18.555389494215206
1279, 9.016817126674596
1280, -1.6666419944358495
1281, -10.865330192779766
1282, -8.290957355444334
1283, 6.810686688541182
1284, 32.553792918126646
1285, 31.63579270690866
1286, 6.169187576625745
1287, -4.771964122981444
1288, -4.320245760903845
1289, 3.3248392402829268
1290, 17.41406459472728
1291, 29.555362516430932
1292, 18.985745109157733
1293, 7.208449371383722
1294, 10.801236019171483
1295, 11.93896751553757
1296, 7.378467929608178
1297, -0.9585620327809465
1298, -6.295581901255673
1299, -5.162684905023752
1300, -1.6399690719515547
1301, 0.5275998394549788
1302, -4.8808699390294805
1303, -8.728485477916138
1304, -5.459979740713834
1305, 7.4097994591516
1306, 19.39818181136434
1307, 12.141107715792941
1308, 2.7536116887215485
1309, -0.11944915144863444
1310, 4.983533108449819
1311, 15.307084643836788
1312, 25.180183215166153
1313, 24.29344576323001
1314, 13.80715112759026
1315, 10.832465306235008
1316, 9.042811650108888
1317, 1.2299059375482102
1318, -7.537958898011084
1319, -14.216448629993465
1320, -12.683207189291124
1321, 1.7753813695849203
1322, 28.528609728832635
1323, 30.71396727645606
1324, 14.67723176770437
1325, 6.573604797178859
1326, 1.0344358296827068
1327, -4.096279105912572
1328, -0.5039603856016583
1329, 4.040904580411734
1330, -1.3456464767696161
1331, 3.5643156080104745
1332, 18.996876603706596
1333, 19.025191604762995
1334, 10.28207064382218
1335, 1.36491667043515
1336, 0.9430461612068939
1337, 8.03619296448096
1338, 15.66824549660555
1339, 10.48279940281077
1340, -8.63666834477658
1341, -8.203358429239415
1342, 6.155517067669052
1343, 20.31391127943357
1344, 32.17115342011334
1345, 37.050905918192484
1346, 21.11335799491235
1347, 4.421632583457267
1348, 2.9244516896803816
1349, -5.438018258330885
1350, -17.114547802638526
1351, -14.406936526096842
1352, -4.27482046521186
1353, 9.669436582643812
1354, 25.803909801766622
1355, 34.73229135935071
1356, 28.41864709255219
1357, 26.67175985689505
1358, 30.938579952511645
1359, 29.294647638314927
1360, 20.683955666223483
1361, 6.6283169239661675
1362, -1.6176171488175441
1363, -1.3573301797284785
1364, 9.243438999758155
1365, 16.63508239717771
1366, 15.538810820158687
1367, 8.997387595481541
1368, 13.090058051561073
1369, 32.78395022935911
1370, 29.73244928283316
1371, 11.47999165548731
1372, 3.9998666648659764
1373, 5.604525063285564
1374, 15.2635898595463
1375, 30.13133781971942
1376, 31.113147289406697
1377, 7.4112457245107635
1378, -6.416461858038929
1379, -6.380254151272766
1380, 4.012065078371734
1381, 2.590818061934442
1382, -11.19300025604457
1383, -8.721071546716985
1384, 5.716991932452856
1385, 26.426913297467763
1386, 41.651785057352754
1387, 46.6443556198883
1388, 37.83236501854867
1389, 26.867971795698168
1390, 19.630908278624247
1391, 20.646304250286903
1392, 16.545160519380943
1393, 1.8476866383239212
1394, 1.0010283543745118
1395, 5.545991876824928
1396, 0.2475048589801645
1397, 2.738191739054173
1398, 13.948503617517645
1399, 20.827583143634456
1400, 24.76357408419426
1401, 23.980441626157017
1402, 5.0310433451641074
1403, -10.43086120502744
1404, -1.0756306469208994
1405, 21.723106108173624
1406, 44.834229028095706
1407, 48.800107972151864
1408, 40.33494748791145
1409, 27.480539206867434
1410, 26.767798036652266
1411, 26.277377393430015
1412, 16.234594884328317
1413, -1.8956546612980674
1414, -11.080598178858736
1415, 10.405931325680058
1416, 36.987191494471745
1417, 51.06013729289157
1418, 34.43468221693092
1419, 12.8057475172875
1420, 0.8978185399935228
1421, 0.2612146766450678
1422, 9.644435549620084
1423, 25.0187442925685
1424, 21.373953114811684
1425, 10.04565296079204
1426, 10.366434989044137
1427, 0.05697939304081956
1428, -14.883339777252104
1429, -9.235476129518247
1430, -1.3418594460795248
1431, 2.0440975722599433
1432, 6.693008413835514
1433, 6.8745169736246226
1434, 3.9140805469671704
1435, 24.724440064151167
1436, 38.997845330027985
1437, 12.106420601293394
1438, -8.599293004012452
1439, -12.988102995399004
1440, -2.836553284548927
1441, 17.558457290379238
1442, 34.131845103123396
1443, 14.413890551101758
1444, -0.45889659131626104
1445, 8.637275691034347
1446, 25.037133491781788
1447, 27.409673868045047
1448, 5.754553706997058
1449, -8.023906493971253
1450, -8.499968094567748
1451, 4.110417882164029
1452, 11.143804233270657
1453, 9.44074545528315
1454, 3.414580357105251
1455, 1.3210468396862325
1456, 5.568746681817402
1457, 15.840959713983239
1458, 19.381482592311386
1459, 14.156369895443731
1460, 13.802981021807
1461, 13.817742250307674
1462, 10.909654000045066
1463, 7.747057941730191
1464, 3.97911262872708
1465, 0.599314548521761
1466, 15.919335634959907
1467, 32.62872312358854
1468, 25.641737379433607
1469, 14.915380495332556
1470, 3.252898832197161
1471, -11.764231901291623
1472, -13.350616404876291
1473, -5.082905953457157
1474, -6.649841716721539
1475, 7.694425989172942
1476, 38.670478653037435
1477, 50.3426932787911
1478, 49.5045955325802
1479, 43.36340174586326
1480, 40.28573847159828
1481, 43.1323234330182
1482, 48.206570080311394
1483, 31.747469296031795
1484, 10.980107918196381
1485, 5.201794847031806
1486, 17.808604476464325
1487, 30.84574210178357
1488, 24.862006179529544
1489, 1.4676333317158878
1490, -17.931230646619042
1491, -10.30769254136112
1492, -2.103777335747509
1493, 2.6452252749243144
1494, 6.772483066396262
1495, 3.6046460267330076
1496, 3.2704407070946218
1497, 24.666593614444764
1498, 25.02221202834062
1499, 4.808888093741189
1500, -3.2657855695204034
1501, 0.4982954498325398
1502, 9.05204499982915
1503, 5.079501832424057
1504, -1.440685304792396
1505, -2.764656192415032
1506, 11.484835081191704
1507, 34.35285633887156
1508, 53.678004928236305
1509, 49.676700656338426
1510, 41.02031886915415
1511, 33.98661755013836
1512, 14.00758158972485
1513, -5.989599155460837
1514, -18.775474255907056
1515, -18.896432180364855
1516, -3.7754834169472815
1517, 19.811030267645265
1518, 16.112496751578647
1519, 9.883882877207725
1520, 16.752820059267833
1521, 19.96597427231768
1522, 15.495785855528538
1523, 4.303327980154563
1524, -2.406703813593822
1525, 1.0327896366218283
1526, 14.472702333373036
1527, 20.31244682321403
1528, 5.983681170328282
1529, -21.046041260918628
1530, -2.530158960750896
1531, 22.351890106171368
1532, 25.04633905031301
1533, 27.281381089965635
1534, 18.660121683261195
1535, -1.1548301740829174
1536, 2.8580567489939313
1537, 4.828046914829201
1538, -6.976983774906557
1539, -0.5562299837408773
1540, 18.96852701859666
1541, 37.954580044569184
1542, 27.53835994553856
1543, 7.079317005058101
1544, -5.972705582634944
1545, -1.6115371986666105
1546, 13.900345902117806
1547, 30.176061983244608
1548, 27.34083314269401
1549, 13.65386373370984
1550, 2.2729514250461307
1551, 16.046354285875395
1552, 17.64728073459696
1553, 0.9358483960570538
1554, -2.4668233705654075
1555, -7.8588117043771035
1556, -13.35429484745282
1557, 1.1458029564998924
1558, 5.5796326286035764
1559, -0.30479226211809873
1560, 6.405160204413733
1561, 0.41161889842214805
1562, -15.5262694027424
1563, -23.097129433898317
1564, -23.69076569882668
1565, -20.385025527860762
1566, -15.747589006124144
1567, 1.6241377657938756
1568, 21.43204639615783
1569, 30.151231970320396
1570, 49.08626414676314
1571, 60.21528460861873
1572, 54.839746055676414
1573, 97.12578631690758
1574, 140.2945644090073
1575, 151.47868819473138
1576, 166.15567066195786
1577, 178.98809008059015
1578, 189.7523204490476
1579, 218.31025790347894
1580, 237.65144095885535
1581, 233.18248354567777
1582, 206.57175758433095
1583, 180.71187071499594
1584, 156.4091806821773
1585, 116.61307275538638
1586, 73.57220193079775
1587, 45.31277915217083
1588, 38.50518750856895
1589, 40.20952083398879
1590, 29.990152519161256
1591, -2.5304439160406673
1592, -18.303473452317803
1593, -14.000201543223511
1594, 2.003876557658259
1595, -0.4611026474265145
1596, -16.212401249649474
1597, -31.69593526577205
1598, -19.580181295023976
1599, -6.868181726872081
1600, -3.6550829466343657
1601, -2.545545675840458
1602, 7.680471533144782
1603, 19.52607919291927
1604, 15.00513037173846
1605, 2.2397345127810695
1606, -1.928795258611899
1607, 14.204854665680841
1608, 24.29801059548913
1609, 19.33226566410849
1610, 0.45942894673385126
1611, -13.632164501883608
1612, -8.9385933679971
1613, 7.324937834969887
1614, 0.5010144846244202
1615, -0.7735830464657738
1616, 4.967121467277366
1617, 3.1698553414619255
1618, 0.4464231407223451
1619, -3.683540752007275
1620, -7.913450398324358
1621, 5.843310305711611
1622, 26.730253740738135
1623, 37.81992764051597
1624, 20.217388962627183
1625, 4.156023756014974
1626, 3.670319445232508
1627, 16.07015124462373
1628, 19.12625161267033
1629, 9.754797264266017
1630, -2.9094789486919126
1631, 5.402628318914367
1632, 18.42520941254179
1633, 20.328474871402022
1634, 15.792595249563647
1635, 22.115160188395066
1636, 40.84206068056005
1637, 59.33183983855747
1638, 33.48200381873244
1639, -6.454479488161951
1640, -11.345653937503812
1641, -13.174516078879606
1642, -8.213879350312027
1643, 4.351033325761819
1644, 6.054435844932868
1645, 15.426860639908
1646, 24.157028050845156
1647, 5.052639178283471
1648, -7.29205179894484
1649, -4.3188688227371586
1650, 8.955827109121628
##END=



