##NAMES=
##LOCALITY=
##RRUFFID=
##CHEMISTRY=
320, 2.364375453478715
321, 10.835903238776154
322, 22.48639335749249
323, 50.26514178760954
324, 84.1944813544842
325, 110.71510483554539
326, 130.47976838811428
327, 146.9766332108029
328, 161.17207969343963
329, 179.07885025881023
330, 202.15555259870234
331, 227.76006447284544
332, 254.4425819345115
333, 274.5776211688526
334, 278.51491605417687
335, 270.709238182445
336, 263.5258539368142
337, 256.80472472750625
338, 245.12734331118554
339, 227.68962916166493
340, 206.92851201565645
341, 183.7745667920808
342, 158.70804625223718
343, 132.1241125375127
344, 109.1708026962333
345, 99.3800787739574
346, 98.18383755346986
347, 86.88335969736727
348, 64.60927913246906
349, 40.93606754985649
350, 18.372694459872946
351, 4.943048351951802
352, 2.4844133105052606
353, 5.48958684833724
354, 8.304447672871902
355, 11.211849386711947
356, 14.519493829142448
357, 17.11522676383902
358, 19.044027966806425
359, 20.778998208958
360, 28.36964818317938
361, 43.539439784000024
362, 55.81734574694656
363, 58.62453398978232
364, 53.26240916178085
365, 41.512578157824464
366, 26.090426666629355
367, 14.550759205118993
368, 6.937679226517503
369, 0.882153016720622
370, -3.9761492974093926
371, -9.101660268561318
372, -15.312391625175223
373, -19.305418467970412
374, -18.776418459287925
375, -13.322550954386315
376, -1.878914515624274
377, 11.818398211328713
378, 13.642360335224112
379, 4.866847537032299
380, -1.2255655609342284
381, -2.7062752264773735
382, -2.5441847531164967
383, -1.6702417456044714
384, 2.7444253258890967
385, 12.997752976372794
386, 25.163522709211975
387, 34.08294135500546
388, 38.08401652842895
389, 32.657699157629395
390, 19.499378649803475
391, 9.383754081231928
392, 3.4814485269362194
393, -4.125302563583318
394, -15.976022260584614
395, -22.30699978164739
396, -17.226435561370636
397, -5.5679466556566695
398, 7.378042967214242
399, 26.21053702743029
400, 60.55978622642397
401, 103.51655993544136
402, 134.49486836235246
403, 151.86586463844105
404, 163.88065705827194
405, 172.71822416784107
406, 181.65450759996384
407, 192.2413804966618
408, 204.2605843555075
409, 217.5134367873752
410, 230.65028697343314
411, 241.26288569521876
412, 252.6907335959586
413, 276.12794998703157
414, 309.6542287243392
415, 335.21454353697754
416, 349.9516473603535
417, 359.48063718991307
418, 365.69787032390104
419, 367.8127269974466
420, 365.33363527654546
421, 361.4327899902746
422, 359.9238012704691
423, 356.1847668540977
424, 339.93117024384355
425, 314.37213089228317
426, 293.9756713886409
427, 280.34783911742124
428, 274.1229757605088
429, 274.7211818891128
430, 267.7499503907384
431, 247.61212373332
432, 219.662462395916
433, 187.66360347679438
434, 150.52259499934644
435, 106.78688796273491
436, 63.47234722534267
437, 37.25699767566675
438, 28.198289897664836
439, 16.909936638325235
440, 2.287452969720107
441, -0.19428790336769453
442, 12.09033678754895
443, 23.807441270549134
444, 27.374714463680903
445, 29.815919579215006
446, 35.895239764831786
447, 41.27515217207019
448, 40.545860783810895
449, 37.280044053841266
450, 39.317177462843574
451, 45.57181104722713
452, 50.925077195128324
453, 54.44575335621357
454, 53.11700473921337
455, 47.02135365469621
456, 45.746273419812496
457, 52.31013717854876
458, 58.70783476579527
459, 60.44744631511185
460, 53.82753896683607
461, 35.20583771206657
462, 10.987944871447326
463, -7.772590805921936
464, -19.640659282407796
465, -19.973389158009923
466, -10.402555423344893
467, 0.36771178978233365
468, 11.917056624725774
469, 22.38401354959933
470, 31.40873721914795
471, 40.67106332228468
472, 50.76429348758393
473, 53.6225716260069
474, 43.894674638192555
475, 27.416008680504092
476, 10.882408671795929
477, -2.590143537903714
478, -7.2982794677946
479, -5.161258747010834
480, -0.9310391012913897
481, 5.0984124499827885
482, 11.147979075572039
483, 16.86776259607177
484, 21.48560454924791
485, 24.858920153573308
486, 27.95166524414526
487, 31.066098654078814
488, 27.62562829745002
489, 13.449022813963893
490, -1.3007155491714002
491, -5.983888517966989
492, -2.348514948652337
493, 7.749698481085943
494, 18.869940170796326
495, 15.570887286922698
496, -0.017276830982154934
497, -14.764352078508637
498, -27.269301693909256
499, -28.879938659590152
500, -18.03650491425833
501, 2.7666344521749124
502, 34.188832181006546
503, 68.75117864930326
504, 104.6374046010842
505, 138.37096763399313
506, 172.60797725764314
507, 209.65763244242316
508, 252.43772436767813
509, 299.69847308723274
510, 348.9617953658553
511, 402.2129946989535
512, 465.60969239514634
513, 535.6294526861966
514, 593.9991048790662
515, 638.0996123421437
516, 665.5217148095417
517, 676.2836397719138
518, 677.4067833032495
519, 671.2119717686601
520, 660.6880384525957
521, 647.2169537955251
522, 624.681981560726
523, 588.6906112226043
524, 543.7364455769184
525, 494.86083222038815
526, 440.3068031744633
527, 377.0684031427263
528, 314.121987286645
529, 274.24518834392256
530, 251.2118822786524
531, 217.68977362886017
532, 174.32457902772148
533, 139.34547141224175
534, 113.56539210912524
535, 78.5237007482283
536, 39.05266800071968
537, 13.828071562204968
538, 7.917930404591971
539, 8.572015085824205
540, 9.709871111888788
541, 14.73360494690678
542, 26.574235303174646
543, 37.272260242194534
544, 39.642850220645414
545, 38.36374342570343
546, 41.045563026586024
547, 44.89845266945758
548, 43.20688976378733
549, 38.750070530516496
550, 41.561348640203505
551, 50.02302732687167
552, 52.78193353606548
553, 49.48590995871109
554, 47.88703441567486
555, 48.965042761648874
556, 46.992383331647034
557, 40.60105421048229
558, 34.072426663857186
559, 29.047142925413937
560, 24.736242901011792
561, 20.699281872130086
562, 13.620622175012613
563, 1.006521496617097
564, -9.11765722092423
565, -9.223226561881347
566, -4.835648790765845
567, -3.8974615048337
568, -0.8091680969919253
569, 16.403427173800992
570, 40.25985855912131
571, 48.293678355044904
572, 41.75934623951616
573, 30.788123038257254
574, 16.305440218826334
575, -2.1256159189633763
576, -22.371678397572396
577, -28.119305042308042
578, -17.379540848173747
579, -3.236140014936609
580, 11.881469381171883
581, 31.20126749852261
582, 55.36231511568076
583, 67.75976239539796
584, 60.20376007410414
585, 46.695303228981174
586, 36.565403374455855
587, 28.061771187235536
588, 19.611823905735946
589, 15.940384169589379
590, 22.820524966189623
591, 29.486959271363958
592, 18.467966815555883
593, 0.030539029606188706
594, -3.610048632208418
595, 4.534087942447513
596, 16.075198180245934
597, 28.40860311799679
598, 35.77933617493636
599, 36.91673491192978
600, 28.29138320537004
601, 11.151733849476841
602, -4.2258307283655085
603, -15.551011689836741
604, -15.925824480958
605, -4.89179315309957
606, 3.820156603765099
607, 6.951969192040451
608, 12.715222322050067
609, 23.526123626291337
610, 24.0928996276989
611, 7.836091849992954
612, -5.708691430379076
613, -6.040746633025265
614, -1.7451823693163533
615, 1.4787507135069973
616, 6.2328314291034985
617, 14.443062826959249
618, 18.999521490416555
619, 11.633606920408056
620, 5.1088083656241
621, 18.56796767747801
622, 37.75871467073739
623, 37.63010363176909
624, 27.26439660997221
625, 27.824063244279387
626, 32.82541588499407
627, 22.8050575857269
628, 5.327305262631853
629, 9.113523472285124
630, 30.022278211338744
631, 40.5376596152264
632, 42.03545999543712
633, 54.4607798875968
634, 76.57394148754338
635, 85.31399330548902
636, 78.63024157974633
637, 69.49109901937209
638, 60.851020571575646
639, 55.796057029986514
640, 55.12376689641496
641, 59.372492964997946
642, 68.19674188188765
643, 73.73908439327806
644, 73.12635587902241
645, 62.64465525098876
646, 41.12022963043728
647, 18.543903563104323
648, -0.17643084600604197
649, -5.8108219045916485
650, 5.994933093419604
651, 22.140228789666253
652, 32.89580625876533
653, 43.435195671072506
654, 57.60208889852947
655, 60.04644047967395
656, 37.40178276205552
657, 12.215888541229106
658, 7.462978896059212
659, 12.799689308129018
660, 14.338968553790437
661, 16.89779926648407
662, 27.07152380485695
663, 33.15464735020487
664, 16.903900750536195
665, -5.968332883655421
666, -8.065418992630839
667, 3.1724289882386074
668, 13.539188561997435
669, 23.931790214355715
670, 37.956532050429814
671, 51.296397249889196
672, 52.9790654640974
673, 47.94004221463183
674, 51.08658854350415
675, 56.76052009800242
676, 45.24358580923308
677, 21.047329659406387
678, 3.7528570425129146
679, -5.053811688046153
680, -7.588550199110614
681, -4.720227214966144
682, 1.864143440650878
683, 11.653238180675544
684, 20.210382206402755
685, 28.523018671319733
686, 43.757700841672886
687, 64.71517207565012
688, 80.18579374749424
689, 86.6884954914467
690, 73.63917386119192
691, 43.332659505018455
692, 20.205364969341645
693, 8.963188422154417
694, 13.993254672317562
695, 33.958901603538834
696, 49.65890764402684
697, 57.581765883739536
698, 57.72916824003369
699, 50.91453531928164
700, 43.84671249421626
701, 37.94944496733842
702, 32.628309910763164
703, 27.75855033018979
704, 23.475147354447472
705, 19.219958819383464
706, 9.133195641757084
707, -4.892100986949117
708, 1.6303031412526252
709, 33.35661577686278
710, 58.4653216075867
711, 69.76115374946858
712, 84.5666357982127
713, 106.06033663673588
714, 113.7015565372858
715, 103.64344775464087
716, 101.89541965301305
717, 114.65324312911434
718, 122.78558278713717
719, 120.95795919393004
720, 114.77420827975493
721, 106.47653577222354
722, 102.97494415572373
723, 105.69526161801468
724, 105.40704407926387
725, 99.99342457675493
726, 99.17748841868706
727, 104.51409609158554
728, 96.98316466715823
729, 72.9714664426815
730, 61.59259231573287
731, 69.58290191034439
732, 69.32712743571619
733, 53.39511724689919
734, 33.27381094364091
735, 12.618923945587085
736, -4.516244874820586
737, -17.730550562038843
738, -13.280004901633674
739, 11.153548980546475
740, 29.90707018529565
741, 35.62335536237106
742, 29.68212209238527
743, 14.337097254086984
744, 8.521273823569118
745, 16.60295767490379
746, 24.58056073292437
747, 29.54492532765198
748, 34.68505827167155
749, 39.18904548930186
750, 29.8821146907203
751, 7.00849923138594
752, -4.177835973975107
753, -0.1412552249826149
754, 9.030387794345188
755, 20.390483022812987
756, 28.13351133362721
757, 30.357521315248505
758, 21.954011687258117
759, 4.207326489190109
760, -9.782896360145969
761, -17.298976009145008
762, -7.983544497014464
763, 16.593701979577418
764, 36.703928531056135
765, 49.198257948198716
766, 52.389385005370514
767, 46.894612725775914
768, 36.124570455396224
769, 24.530752410146306
770, 27.538693610544215
771, 42.73694963102207
772, 56.69506224239785
773, 63.511328143008996
774, 48.26632677946054
775, 19.827391227639055
776, 6.35259152056733
777, 7.653679049562015
778, 17.37946138121515
779, 32.003106896002464
780, 45.92561039000475
781, 54.297610315646125
782, 47.59621761750395
783, 34.26023806978537
784, 30.293654139357386
785, 32.01379816635608
786, 32.874282472985215
787, 31.386967495634053
788, 25.552908466464032
789, 21.5369854327987
790, 29.219396716126994
791, 37.350728557226375
792, 36.0784360046805
793, 37.724405002067215
794, 53.64076833858235
795, 66.77980710147358
796, 63.742270890831605
797, 59.21767498049121
798, 62.920017504527095
799, 56.828204507106875
800, 31.176431959818274
801, 15.344322037534312
802, 24.81940950660737
803, 36.907714508741265
804, 42.6099752025234
805, 44.48387697798262
806, 43.19218896306438
807, 34.95739623585405
808, 19.66269559519651
809, 8.397299437497168
810, 5.188465093282957
811, 11.776816166695426
812, 25.792767919077505
813, 32.04225592191915
814, 30.21892541596162
815, 33.52650921391614
816, 42.670295508038635
817, 52.17329416014081
818, 58.227391362509934
819, 49.410861065481186
820, 28.76527705089393
821, 8.412827424954685
822, -9.165819279539392
823, -20.780588450174946
824, -22.151155905438372
825, -2.799102630835023
826, 21.593573122112048
827, 21.801021601326283
828, 11.849316086555518
829, 10.925298636465413
830, 15.438206659132447
831, 19.276823740025065
832, 26.800369367296298
833, 41.458717407707354
834, 49.10158613044405
835, 40.87238514770297
836, 33.76744998875074
837, 36.40151155558851
838, 42.396533478960464
839, 48.92635144831684
840, 53.623268605429985
841, 56.18230032816564
842, 61.5516086925727
843, 69.18823060348541
844, 65.38576309450536
845, 49.54315169607753
846, 33.884325861816706
847, 20.526612345282956
848, 10.43909833179896
849, 6.113478341161226
850, 11.519724270537608
851, 21.821673484514122
852, 21.237936684226497
853, 15.53829135569049
854, 17.60130138364366
855, 26.75875672506527
856, 41.46302425276235
857, 52.201664722353144
858, 48.1100460519865
859, 35.65730914643382
860, 20.390820529248685
861, 8.490694453467768
862, 3.747856026990121
863, 2.8834845975625285
864, 4.034529378768184
865, 6.8147993761213
866, 10.349666147857079
867, 11.519915750775453
868, 9.722395626417892
869, 6.73790355249821
870, 3.131629959217662
871, -0.01680619302942432
872, -2.3243183657305053
873, -3.15247101330624
874, -3.131511242188026
875, -4.0110063102247295
876, -6.15554230868247
877, -10.13713503465442
878, -9.358492321096037
879, 6.803028813905712
880, 25.85920902118187
881, 33.297516063746116
882, 33.099380384887354
883, 28.273585744429965
884, 18.993857826732437
885, 5.875096457262771
886, -0.5459961811598077
887, 2.856236038820498
888, 5.432399576061471
889, 4.728280861656003
890, 8.056224116350677
891, 14.656942945449828
892, 16.433357363765026
893, 16.016867727520548
894, 26.1844568950537
895, 41.73006315216935
896, 47.35120950737428
897, 46.10353248302317
898, 44.44985252455854
899, 35.37967976762275
900, 10.467447322364023
901, -5.188574663257441
902, 7.3536683375646135
903, 18.686850613627485
904, 12.33327095949653
905, 10.822396553238832
906, 21.10831451441527
907, 25.356577188095798
908, 21.61499256863499
909, 27.79678997791416
910, 41.411107695677856
911, 38.43849923456719
912, 23.144611122962488
913, 15.515943857813454
914, 12.896180069904858
915, 7.6106027134323995
916, 4.433634429156882
917, 8.620418529541439
918, 15.356999966192234
919, 19.554359347118407
920, 35.45539124904508
921, 69.30504164896729
922, 86.6395655388933
923, 76.52807439076787
924, 60.522704191252615
925, 43.6650772256894
926, 23.430474759104982
927, 5.666869680100717
928, 14.431366162459199
929, 38.61228964178963
930, 46.521846321123576
931, 44.96659754564553
932, 47.492273433908395
933, 54.64514896633045
934, 66.63732176868052
935, 69.16020101162167
936, 53.47605338918356
937, 34.018754679804715
938, 17.017251272157864
939, 3.569691719241291
940, -3.355787463168326
941, 9.828010154061758
942, 36.79336518905711
943, 42.71847960011246
944, 33.951352721386684
945, 34.329593391653816
946, 36.81668764453616
947, 28.745147438321965
948, 16.772889776063494
949, 7.3527752439213145
950, -1.1705851785668528
951, -9.200439573803123
952, -5.25215937430994
953, 13.51019739806452
954, 29.302590092713217
955, 38.84877501966912
956, 46.854262531832774
957, 53.57099529362267
958, 57.83789685264446
959, 57.62429640825712
960, 49.250407484738844
961, 34.48692451453917
962, 15.549259542351137
963, 2.185216487766411
964, 1.080554209796901
965, 10.55755859108831
966, 27.50871719980978
967, 29.221378842095874
968, 15.580814167119115
969, 15.794122580465682
970, 27.852142249114422
971, 32.47022489546316
972, 31.70916215035095
973, 32.03249049605574
974, 27.077333969821666
975, 9.885608576340474
976, 0.9036286385335188
977, 12.057974733486844
978, 22.175326129787663
979, 23.709692582114712
980, 20.40781992284974
981, 15.153228845568265
982, 17.159210487735436
983, 23.780110637379494
984, 25.097753531842045
985, 20.290458093308644
986, 8.907328590977613
987, -2.6275395244115316
988, -8.962542387115718
989, -8.837375296403934
990, -2.273763269657138
991, -0.12476907647851476
992, -3.8643181580077908
993, -4.386260840307841
994, 3.5474458283124477
995, 32.87521447807876
996, 74.88069157603923
997, 112.2946692179562
998, 128.52693479524078
999, 107.55530272482383
1000, 86.22506725512994
1001, 84.32145361999665
1002, 86.92468249008425
1003, 87.95961124086807
1004, 79.40896322411982
1005, 59.38528354348682
1006, 26.28710509967459
1007, -4.046159522979451
1008, -1.072955185329647
1009, 18.685727941765435
1010, 38.600599227771
1011, 53.59922537123339
1012, 62.75201317451274
1013, 77.74561414918435
1014, 99.18366198543936
1015, 108.61708592943387
1016, 105.9614970737316
1017, 100.77215132877654
1018, 93.87619859722736
1019, 85.47723573153098
1020, 78.04137133410995
1021, 73.70628988588624
1022, 68.36670493529527
1023, 60.721887224615784
1024, 58.08543786902601
1025, 61.52626882145796
1026, 66.80241576371327
1027, 69.50892686967245
1028, 59.72938107924438
1029, 40.928238875435
1030, 18.692728121149685
1031, 5.929590668211858
1032, 11.105351447946305
1033, 15.487374502203238
1034, 11.045372524691174
1035, -0.8197055954947245
1036, -16.16816832391396
1037, -23.574491846462934
1038, -21.186058228158345
1039, -6.015689385421865
1040, 9.087904667722341
1041, 11.623298457312558
1042, 4.580486092472711
1043, -8.464335305163331
1044, -8.271957897579341
1045, 4.902865327781001
1046, 10.09187535794672
1047, 6.890274465634775
1048, -0.23883632974684588
1049, -9.364238454883889
1050, -19.205757308089233
1051, -20.931360064573255
1052, -11.252502370375169
1053, -8.953568459882263
1054, -17.15331296006525
1055, -26.84451799083763
1056, -34.98517965644214
1057, -35.86539860033918
1058, -31.091842994881972
1059, -22.47392725128384
1060, -18.635636201322995
1061, -22.51528743892959
1062, -11.691550504708175
1063, 19.02275707662102
1064, 61.51720571339183
1065, 118.64812622808404
1066, 196.17071059835234
1067, 313.672450941051
1068, 464.79138359578064
1069, 638.5157353106538
1070, 827.2456555432659
1071, 1013.3641150938847
1072, 1192.247954992819
1073, 1363.956991476789
1074, 1534.7124372391831
1075, 1717.6144467217846
1076, 1878.6549612243648
1077, 1983.791841216741
1078, 2032.1461924831729
1079, 2026.0883552123423
1080, 1988.479116006442
1081, 1921.6468842852141
1082, 1815.7407169366961
1083, 1668.1366240122593
1084, 1475.9021989672065
1085, 1257.1280107187467
1086, 1028.0745705737727
1087, 827.6449743412768
1088, 663.5151988151274
1089, 496.36876013206665
1090, 327.5211885146259
1091, 178.38880207729926
1092, 74.32159335360711
1093, 12.664311007489687
1094, -14.184271594389429
1095, -12.743281585589557
1096, -13.61949690729125
1097, -22.400956451907405
1098, -29.603255668772363
1099, -29.445473659990057
1100, -11.769608688523931
1101, -0.7191065107199393
1102, -15.104644601765358
1103, -27.142906190370923
1104, -28.390780419106704
1105, -26.41522750643753
1106, -19.358244607731194
1107, 0.9830361559111225
1108, 22.163593776721882
1109, 27.299265492044924
1110, 35.72490257292475
1111, 55.00534997998011
1112, 67.56862689568698
1113, 65.76047304552594
1114, 37.003097440956026
1115, -1.5156093481341486
1116, -22.202438751401132
1117, -19.10351471796048
1118, 9.409553576629605
1119, 24.578048236272025
1120, 19.24263530202643
1121, 11.328035760041985
1122, 2.700163981998685
1123, -6.536552519638462
1124, -8.84912663567593
1125, 0.5170265705337442
1126, 1.6103652159968078
1127, -6.610750021099193
1128, 3.0486250284102425
1129, 27.328469981744547
1130, 49.26430058478854
1131, 63.39094828285397
1132, 66.57266469941715
1133, 78.0803699228918
1134, 102.56542229859224
1135, 127.3251592147717
1136, 148.38729252784606
1137, 161.0620541917774
1138, 161.35434904477415
1139, 146.7842036629686
1140, 136.197232199077
1141, 135.36594328933916
1142, 136.74878773640694
1143, 132.9489927319246
1144, 109.85710462728639
1145, 80.66031576552314
1146, 58.319993970500946
1147, 52.44698613394348
1148, 62.58558268011075
1149, 67.46643386655433
1150, 59.423776110753806
1151, 28.693178132874436
1152, 0.16123367564614455
1153, -5.363023946328667
1154, 4.469456156453816
1155, 23.943477599257676
1156, 32.3026375966092
1157, 27.530062488337535
1158, 10.880608091012164
1159, -5.557272446159459
1160, -13.482695386641808
1161, -14.004472172471651
1162, -7.87601488611881
1163, 3.0649285521244565
1164, 16.956029136867073
1165, 28.91946423765239
1166, 26.58086474969832
1167, 5.888118327865868
1168, -0.7214530936403207
1169, 8.643751431293822
1170, 18.083005153461272
1171, 31.426965169230243
1172, 51.75414526750865
1173, 64.52199815094946
1174, 66.52301580182848
1175, 82.5727187060429
1176, 109.30061499424392
1177, 127.1038891011658
1178, 144.23778728062325
1179, 168.50012465456666
1180, 188.34612320050928
1181, 199.45974513629335
1182, 200.75760275632774
1183, 197.5357525654972
1184, 199.33848454830195
1185, 197.1549804179558
1186, 186.46014314407512
1187, 179.85456882242988
1188, 172.5243620945712
1189, 139.7169043518238
1190, 105.59691758657527
1191, 99.33470136810092
1192, 85.73668392783156
1193, 54.61797582836061
1194, 32.56120119416664
1195, 15.397855371490095
1196, -11.919899771043674
1197, -26.928458522342225
1198, -14.787386814493402
1199, 4.4975068563198874
1200, 22.932490165562285
1201, 25.898618380532753
1202, 20.080477219197746
1203, 15.301234972793281
1204, 19.813253295027607
1205, 35.13703978524336
1206, 62.274088616076824
1207, 89.49346821552854
1208, 93.82581115753737
1209, 87.1791129661201
1210, 78.61749984217477
1211, 75.1073247094414
1212, 74.93306577820113
1213, 68.12518129623277
1214, 58.74400720467429
1215, 51.60896128747481
1216, 45.8463069532454
1217, 40.140244060442456
1218, 30.142367210295106
1219, 16.664067863605396
1220, 2.072075417270753
1221, -0.4925369599154692
1222, 12.467968991666112
1223, 22.433242671419976
1224, 24.071359035989644
1225, 13.022450069264323
1226, -5.472709510833738
1227, -25.037611790028222
1228, -18.1910009851631
1229, 9.447037978015487
1230, 19.332011720244736
1231, 14.035540481545013
1232, -0.21582088259674492
1233, -7.620388553830253
1234, -5.405705873046827
1235, -0.30631105172869866
1236, 5.661459298582486
1237, 9.702872326207853
1238, 2.2520705601227746
1239, -12.736444116997518
1240, 2.5024941569845396
1241, 28.61979983399806
1242, 21.749876820879763
1243, 11.914426073804407
1244, 15.349830322529215
1245, 23.714819675569288
1246, 39.73363701893777
1247, 71.82015176659752
1248, 99.42382816350255
1249, 113.62307800116787
1250, 129.18949883431196
1251, 148.68638165862012
1252, 170.70164151966765
1253, 198.26483719842054
1254, 232.69136009045042
1255, 264.30662324803006
1256, 289.56944569275856
1257, 305.3460689745539
1258, 306.8914044001017
1259, 292.633102119009
1260, 288.6484248192987
1261, 301.3789055014904
1262, 328.4222137723659
1263, 353.7685157961141
1264, 361.24216048918424
1265, 336.12631230085435
1266, 288.0003270825596
1267, 261.9348008105726
1268, 256.1773340770187
1269, 264.56201878684624
1270, 274.2698836067252
1271, 278.2812727124283
1272, 266.5809330570055
1273, 249.87070619874748
1274, 238.80906540794695
1275, 217.12801558104957
1276, 184.47044900012634
1277, 156.72572029842468
1278, 141.01587114302902
1279, 140.80357241117144
1280, 123.5245293333046
1281, 86.03614863892653
1282, 50.53082123534841
1283, 30.143498250640278
1284, 28.62208850996103
1285, 41.00984101531276
1286, 53.221967269727884
1287, 35.78073207503394
1288, 11.721267990319575
1289, 4.335514362549475
1290, 12.63699395502772
1291, 29.31722956177373
1292, 35.82253007336385
1293, 26.228657067972563
1294, 0.11476760239747819
1295, -12.380598870691756
1296, -8.774009177359403
1297, 3.202391021749918
1298, 12.588600282440893
1299, 11.599257852637948
1300, 0.01994232230799753
1301, -13.241639514470535
1302, -11.578929106022315
1303, -6.794820394899034
1304, -5.337777764426846
1305, -6.349932394859934
1306, -4.794132456931493
1307, 7.125194828081476
1308, 8.879289770261494
1309, -4.329571372865303
1310, -10.62042167266145
1311, -8.254468409862056
1312, 2.846748219800247
1313, 29.222328358502182
1314, 59.38167815204383
1315, 45.80666662838689
1316, 13.796230053633508
1317, -6.713221859284431
1318, -4.568059456735227
1319, 15.604772637736005
1320, 32.8890094100384
1321, 43.899355931921264
1322, 48.339879542430026
1323, 55.6431440788765
1324, 60.12002160945917
1325, 47.46514403814035
1326, 28.470867562360354
1327, 10.040871403492474
1328, -1.858713476538469
1329, -0.3172049294282715
1330, 21.28106660169192
1331, 28.67040929531754
1332, 15.331470467914187
1333, 0.32583832913246624
1334, -10.941798407169244
1335, -15.761102272284461
1336, -10.654441475746125
1337, 0.18515279985876987
1338, 5.281381641717644
1339, 5.918584042619159
1340, 5.368769037161428
1341, 15.814149354404663
1342, 28.549126763051163
1343, 28.590377681031214
1344, 17.939305889468642
1345, 2.779741189003971
1346, 1.3333529418459875
1347, 6.500445388789785
1348, 10.958866994646087
1349, 14.597633826438596
1350, 17.299440779723227
1351, 18.948974192024934
1352, 22.31915090598909
1353, 27.842104145398707
1354, 30.99247233078836
1355, 27.66648198314215
1356, 14.915146312966726
1357, 8.758422836591535
1358, 8.58650210269343
1359, 0.19530424875870267
1360, -5.082203484478441
1361, -1.2872478967849474
1362, 3.895617351134888
1363, 6.615645344696986
1364, 3.381697523380126
1365, 2.0985306342072363
1366, 3.7186964727982286
1367, 1.408621936142481
1368, 8.275694799915982
1369, 29.525360176591448
1370, 31.19697539535491
1371, 19.875982095806194
1372, 16.696968431373534
1373, 6.37672757040923
1374, -10.455988169485408
1375, -11.562031123806719
1376, -2.620896036569775
1377, 11.08719667192986
1378, 29.275236028194968
1379, 39.33923836614258
1380, 21.496071493070986
1381, 11.798829610756457
1382, 19.763554822477317
1383, 22.906967984783705
1384, 28.7175645157115
1385, 39.998063202279354
1386, 25.604526724072457
1387, 3.6177049066266136
1388, 12.102111064268911
1389, 32.56334302842811
1390, 57.58317323292954
1391, 77.60878011641944
1392, 89.23017112611933
1393, 92.24889177209525
1394, 97.80080800786891
1395, 104.79529288293702
1396, 109.39594918030025
1397, 114.10895302973518
1398, 123.535972097166
1399, 147.080184727879
1400, 173.32302347437053
1401, 192.25440785547107
1402, 188.87376393351997
1403, 177.30527989603775
1404, 175.33928145781442
1405, 190.45220473535392
1406, 214.0664980224292
1407, 226.44400712168408
1408, 232.97662415819696
1409, 234.69466749276057
1410, 226.7733633687851
1411, 220.6924658764849
1412, 221.3497701556264
1413, 205.9956090435519
1414, 183.86736511778417
1415, 170.42603847299938
1416, 145.1643621413391
1417, 113.06886584014501
1418, 98.34265860387063
1419, 91.7167354378671
1420, 90.3958584533002
1421, 102.07913043442204
1422, 102.03786735493804
1423, 73.70046192555492
1424, 40.91328885968619
1425, 13.757094166200886
1426, 2.12855827607882
1427, 10.308282868998504
1428, 25.208578049871676
1429, 12.69261227408515
1430, -5.048354881157593
1431, -15.207717547139055
1432, -10.084925789189356
1433, -3.5052371588687947
1434, -4.054223477026426
1435, -2.778967474372621
1436, 1.1647016997878836
1437, 6.833589379835985
1438, 8.757377187172096
1439, 4.36615761578355
1440, -7.169847670980289
1441, -0.568083970527141
1442, 21.62676252255119
1443, 25.01590033888533
1444, 14.454569493804229
1445, -2.279118190804411
1446, -9.169493904780893
1447, -4.84475640896494
1448, 7.997546853714766
1449, 9.123908764786847
1450, 3.9516987090808016
1451, 3.758180106116697
1452, 12.029101055375122
1453, 20.95386270560175
1454, 16.676657001141166
1455, 11.37809330223422
1456, 11.011709084241147
1457, 19.137189071454486
1458, 25.87649544746091
1459, 24.023735087651175
1460, 5.999620423600618
1461, -3.2417894958161924
1462, 11.546369086623145
1463, 46.74392609032543
1464, 69.69541030285541
1465, 54.4846672245767
1466, 31.29428408854369
1467, 13.90864108970095
1468, 14.643808159830087
1469, 36.03861336514046
1470, 58.72486427856825
1471, 52.638177199198026
1472, 50.13233584170757
1473, 55.53613235652779
1474, 54.27606836665427
1475, 57.90964350278432
1476, 67.76985098321802
1477, 72.8194488713184
1478, 81.98973036762686
1479, 94.36806047967366
1480, 87.36919664219477
1481, 72.6417353736806
1482, 60.816364711834694
1483, 57.2385366521637
1484, 55.41071598235021
1485, 49.002045548816795
1486, 37.32881693902323
1487, 27.310106351541435
1488, 26.97041239062014
1489, 39.068265376154386
1490, 45.191180464615854
1491, 22.96771549582536
1492, -0.5439806851704816
1493, -12.708166265532554
1494, -5.774297493893755
1495, 13.080917147484115
1496, 29.04167994582849
1497, 19.783139118078452
1498, 17.273656969098965
1499, 23.774872202394135
1500, 20.842877992786953
1501, 14.394743947541883
1502, 7.354828370739142
1503, 1.9642378769085553
1504, 11.417815468515983
1505, 30.15095142694122
1506, 27.454177342142657
1507, 18.369355029458575
1508, 11.76726496822539
1509, 9.6788615234816
1510, 8.946993630783709
1511, 5.440123596029025
1512, -8.378465204487156
1513, -13.844578315954095
1514, -1.5031451189659037
1515, 23.62119138927278
1516, 38.773277414112044
1517, 35.042300061754986
1518, 31.46562923804845
1519, 34.268174796485255
1520, 43.78911892220685
1521, 49.778928765560295
1522, 35.55417802670945
1523, 2.1723868464216594
1524, -1.5942881667722304
1525, 12.401439579232829
1526, 25.497542702626333
1527, 8.13747469542136
1528, -9.67578353516842
1529, -5.915032919739815
1530, 16.735881912078185
1531, 34.49305666959094
1532, 30.09206141863956
1533, 2.848367788051064
1534, -12.846887829742855
1535, -0.7268193484160292
1536, 13.648503483904278
1537, 14.07946795282487
1538, 0.7291481813551854
1539, 9.867989174392505
1540, 22.592703890116127
1541, 25.355843667762656
1542, 21.926306086220393
1543, 5.5192946155405025
1544, -15.808474534788957
1545, -0.6378161297127463
1546, 21.494273314497832
1547, 28.48138723979423
1548, 12.970448987905002
1549, -3.906539191754746
1550, -7.642031006720572
1551, 11.123681316182228
1552, 25.658372163521108
1553, 20.60468009529359
1554, -7.832032276675136
1555, -20.311413317931738
1556, -13.216553543091322
1557, -14.61648025173622
1558, -25.209226896954533
1559, -37.523698763320226
1560, -36.31530726391179
1561, -31.193583358681963
1562, -25.763313778384372
1563, -20.762483758850067
1564, -13.96140411807255
1565, -1.0267175124190544
1566, 22.570536600398327
1567, 45.38094261283595
1568, 84.9467128371059
1569, 167.23408130176358
1570, 290.83032690369305
1571, 424.36685918705575
1572, 555.9479625503318
1573, 692.0368712613431
1574, 839.2113865177164
1575, 998.6312455969917
1576, 1155.4784076299486
1577, 1314.836402293465
1578, 1470.682774479428
1579, 1586.9499829548588
1580, 1666.652537446955
1581, 1699.3402437333782
1582, 1650.1910628301785
1583, 1566.6742682875729
1584, 1457.3010287207676
1585, 1299.702850457013
1586, 1123.5060801257307
1587, 933.6959505800414
1588, 727.2866603560772
1589, 544.1397175277234
1590, 387.4068547108516
1591, 252.0994586346876
1592, 155.3430710043117
1593, 94.82770783189608
1594, 47.59182232202784
1595, 15.296926726020274
1596, -18.076922287055368
1597, -52.580912886319084
1598, -53.609461947381305
1599, -34.26921982532053
1600, -10.429485831565216
1601, -3.611450799075328
1602, -4.218641154023089
1603, -5.219918781210026
1604, -1.108108036770318
1605, 2.2207409941054266
1606, -3.7732143128914686
1607, -21.47926238420996
1608, -15.220493313439874
1609, 1.8284636644259535
1610, 11.531354245848206
1611, -3.02590317955719
1612, -18.312578276886597
1613, -21.68160767189579
1614, -11.407977971047785
1615, 4.930976927764505
1616, 13.408994357559095
1617, -1.6716969224778495
1618, 0.4043062889527391
1619, 14.144688063901185
1620, 21.428667713342975
1621, 15.035011934998238
1622, -0.6764238938540075
1623, -16.058411814644842
1624, -13.307132384520628
1625, 0.19019140102955134
1626, 11.262329674902276
1627, 1.203186744263121
1628, 6.245657618140513
1629, 21.311648725806435
1630, 27.468042988706202
1631, 30.22264088736756
1632, 25.28632282238914
1633, 14.443908194529286
1634, 17.79308098431602
1635, 17.22440897006436
1636, 10.07779725475416
1637, 9.963905905973206
1638, 7.127069269762842
1639, 2.2221572081834893
1640, -0.7932231042532294
1641, -7.182641125036298
1642, -3.090885725895305
1643, 13.241880132537062
1644, 10.72836892509281
1645, 5.320051780935955
1646, 3.2562375068564506
1647, 1.9017220094815457
1648, 4.409245238517542
1649, -0.36461908531487097
1650, -19.72059813363353
##END=



