##NAMES=
##LOCALITY=
##RRUFFID=
##CHEMISTRY=
320, 25.212446637146968
321, 25.972299730808118
322, 19.286975679500756
323, 13.671787725843387
324, 15.166233761849071
325, 32.119641590037645
326, 59.98451780974301
327, 86.49800228513595
328, 109.92340021450218
329, 125.21115724984156
330, 131.19813181424524
331, 133.0354940521038
332, 133.54983036877547
333, 133.32521875318525
334, 133.10082647207037
335, 133.9469409228559
336, 138.80599280603747
337, 145.99292253306703
338, 144.01614536861143
339, 131.53865615764607
340, 120.74226513487702
341, 116.26068767517336
342, 112.71160638680249
343, 105.66633654888847
344, 97.54217435213377
345, 92.81491811079559
346, 88.82135947706684
347, 74.7539395063186
348, 50.80555170916705
349, 29.022430859916312
350, 12.46793495165548
351, 6.516078390268376
352, 12.697622825246981
353, 27.768534416165494
354, 46.08762805153037
355, 62.814568264236186
356, 66.34873671257083
357, 56.98502736702994
358, 38.77140984370453
359, 13.208496272810407
360, -7.545182749875494
361, -20.473662228244393
362, -23.770381326714414
363, -15.814395655746011
364, -3.0716164061514064
365, 5.785780510647783
366, 11.34073782714222
367, 14.52701274599167
368, 15.636349185177096
369, 16.05599579515183
370, 16.214792129424495
371, 19.28070399140961
372, 26.276156206423366
373, 29.388992218095154
374, 23.23471077681188
375, 12.710395670002072
376, 5.017415363084183
377, -0.3468290975843047
378, -5.075427792222399
379, -9.083879395523581
380, -8.751659110625042
381, -3.4550966720498764
382, 5.994851103485416
383, 19.46276693533582
384, 34.87484821195085
385, 50.82693756585195
386, 59.178384070533866
387, 48.428765298231156
388, 22.860499068312492
389, -5.488839081340302
390, -32.587461092337435
391, -39.78025233557946
392, -25.711352950525907
393, -4.4676940154004114
394, 21.031985998893106
395, 36.182504482774675
396, 32.00563120551578
397, 17.251853445640336
398, 4.234232965904994
399, -3.6125980011202046
400, 3.9441826958827733
401, 26.707844190867036
402, 60.62948140973003
403, 107.78260425555254
404, 156.76781972625395
405, 206.4534357878374
406, 263.213859091994
407, 330.06444853062294
408, 398.67505987601453
409, 461.46269893310546
410, 516.0203054102449
411, 558.052841668582
412, 590.0232710927376
413, 620.3512389894195
414, 647.253470785854
415, 654.9681508188678
416, 641.1893797113325
417, 613.7094703960138
418, 575.3073101671389
419, 535.8878619421394
420, 501.6095877198313
421, 472.6596885299832
422, 449.26321730353993
423, 426.6131131702605
424, 394.03008231792865
425, 354.0410225175783
426, 318.41917075821857
427, 288.30815215002167
428, 262.9277942764238
429, 241.62204396360266
430, 214.58672610321992
431, 177.99809620267024
432, 134.03704824613123
433, 84.2360340854284
434, 39.7228091955958
435, 19.281715257733595
436, 15.567186093214332
437, 15.461981173674758
438, 17.182933599392527
439, 15.730315474725103
440, 9.051886624592953
441, 0.03919353709443385
442, -11.331247651513877
443, -17.453696750721974
444, -15.587356956425538
445, -9.875258724924606
446, -2.679385875204389
447, 7.58322767131358
448, 23.01179588461673
449, 40.653430326635316
450, 55.70764829222753
451, 65.69787834590716
452, 61.941419860601854
453, 45.61088336693592
454, 30.426655037340424
455, 19.428733245770673
456, 19.162607156509694
457, 31.568867479406435
458, 45.04962823410915
459, 53.09692553605237
460, 48.85593290095676
461, 25.581380553399867
462, -3.71166983247349
463, -16.93660429537158
464, -17.4257772229912
465, -12.141033459762184
466, -2.60354376815485
467, 4.180609580198507
468, 7.325804748142218
469, 6.160452204620924
470, 0.9368649139341869
471, 0.49870380748961907
472, 8.266260988969407
473, 19.389338065424454
474, 30.683223417100635
475, 33.43952255788099
476, 17.665791033202368
477, -4.7208573386897115
478, -11.308608880906831
479, -5.921250565081209
480, 0.36705183034246147
481, 7.169642036362347
482, 13.505256884963273
483, 18.439993042032256
484, 14.503988633045992
485, 0.9262730766440654
486, -0.33093214523705683
487, 19.022149866657855
488, 37.699854547066934
489, 42.14824299857355
490, 35.23706445571406
491, 20.007489210858694
492, -0.05601415733508475
493, -18.913862585185598
494, -33.87529209477634
495, -34.18763962577577
496, -22.5658211209402
497, -12.576699214083419
498, -4.777855151452968
499, 2.71969312996589
500, 10.498086208932364
501, 13.921446380812995
502, 11.96441880304883
503, 17.113714540799265
504, 36.16260626272833
505, 66.94979453409996
506, 109.38391031482934
507, 154.14146090495433
508, 197.92806870337608
509, 239.56425711295287
510, 276.7509316494925
511, 312.55861074119184
512, 356.38833716676163
513, 408.24439687739414
514, 465.20527754834893
515, 524.5944550902041
516, 569.0060402531617
517, 595.0686706660244
518, 605.7170853354883
519, 602.0579985796476
520, 589.6346310645204
521, 571.1466147312885
522, 555.9549446116844
523, 550.7818770881295
524, 539.2366571128623
525, 502.9305891726681
526, 448.39497782537455
527, 386.8035891043073
528, 323.29964937399563
529, 270.38622060243233
530, 228.57575958067173
531, 197.51372626320608
532, 174.58960602206116
533, 145.26186258389225
534, 108.25347761360536
535, 72.60492917023566
536, 47.809242403349344
537, 32.477575962168885
538, 25.376141000389907
539, 22.832371030985996
540, 23.060084132703196
541, 18.66834385411221
542, 5.885909003483903
543, -6.742648623197056
544, -11.667458305767468
545, -11.759522848984489
546, -10.897510845097713
547, -7.604262410730371
548, 1.800457512610592
549, 16.872832118018778
550, 32.4233845167455
551, 47.05779316443204
552, 56.04593282588576
553, 58.22585129016625
554, 49.714066156938316
555, 31.29477651938396
556, 19.94712088637334
557, 19.79063457749453
558, 19.393066253463985
559, 14.457109123914961
560, 10.805787608614992
561, 11.517453689907597
562, 5.921517449272869
563, -13.415330090418138
564, -24.791947132710447
565, -3.8630803288115203
566, 29.14273393196163
567, 40.653667797275375
568, 38.955708701225376
569, 42.0692270598538
570, 44.03482688181066
571, 26.365291561164668
572, -4.505812997287649
573, -19.828994737666108
574, -20.12197273746824
575, -15.440646317427309
576, -6.690816837684906
577, 7.787055651308037
578, 28.18563627974072
579, 47.1909159221932
580, 62.11886395730289
581, 61.462101941048786
582, 41.48546756067208
583, 24.489356367463188
584, 21.560876519476096
585, 22.867064010815284
586, 21.85372062156057
587, 18.387015909879665
588, 12.346844455391874
589, 4.826929785630455
590, -2.3536134002288236
591, -5.900487045317732
592, 0.3293435781183689
593, 10.511607376617576
594, 10.792236547686116
595, 3.0697790344056557
596, -6.240814726932513
597, -14.368090418742213
598, -11.403938049542376
599, 0.6359492070459964
600, 7.961820434541096
601, 9.53226996526837
602, 10.783248012007334
603, 12.513837500907357
604, 13.739260609964276
605, 14.341213961504764
606, 15.474357885318113
607, 17.089862456971787
608, 12.71750067164703
609, 0.4717619197804197
610, -7.0399866739517165
611, -5.0690980311464955
612, -4.225047953950252
613, -10.502504561696696
614, -12.803438588828158
615, -2.9544585015146367
616, 12.36469957125064
617, 26.469715480831383
618, 35.465874931044254
619, 34.82375690199933
620, 30.236574393887167
621, 30.016603386397037
622, 32.25471405008375
623, 33.382428838700434
624, 34.17216299196252
625, 36.488209096190985
626, 38.25416967228557
627, 33.71175938308488
628, 25.17323100685462
629, 21.220292188007534
630, 24.512182167464744
631, 34.870266326695855
632, 49.259971760601275
633, 65.11248269640646
634, 81.23491721164783
635, 92.5546922692688
636, 97.6614259022549
637, 92.33243035087708
638, 77.62354916632285
639, 71.24840969901788
640, 76.87571049129247
641, 86.78212943696371
642, 98.61237848699511
643, 110.63409154584406
644, 121.8195803291701
645, 122.92529307513632
646, 110.59682527920177
647, 96.38636060629642
648, 85.55417568541043
649, 68.9392216367828
650, 41.697782986241236
651, 20.63053223068573
652, 18.51260918437447
653, 23.997962379799446
654, 26.93175865756666
655, 35.29675265181777
656, 56.04414407480317
657, 71.86292071196385
658, 65.11466544235054
659, 49.50792497320799
660, 41.28461340481408
661, 31.380866057984804
662, 7.406922238271363
663, -17.44414854359684
664, -26.214342413329177
665, -23.733807445374623
666, -17.07386619253157
667, -3.0416938393564124
668, 25.02835432792881
669, 56.10207646381377
670, 64.76184400604552
671, 55.569640302723656
672, 42.053909992543595
673, 25.653824648119553
674, 8.593248203319035
675, -4.028646710667999
676, -1.0209407211450525
677, 13.482092862041554
678, 23.26321078335286
679, 27.475597764808754
680, 33.18036064984017
681, 40.99630600593673
682, 50.78148757709732
683, 61.760779731941966
684, 70.58328500227344
685, 76.51111498621276
686, 77.89960212121468
687, 75.55201679503716
688, 74.80657842168284
689, 77.54155174878952
690, 90.05164090988228
691, 110.49310380081079
692, 121.38157815451405
693, 121.14848352009403
694, 119.2714394968175
695, 116.47802613985368
696, 105.45766874112633
697, 85.42618635342797
698, 61.453886560842875
699, 34.971655510225446
700, 9.002055216706594
701, -12.849422928170043
702, -14.906545648118481
703, 4.648414882377438
704, 27.576095589929537
705, 47.46775847262188
706, 54.60213126657436
707, 47.84270727930243
708, 41.325317298028494
709, 39.46481567024966
710, 53.384270879213545
711, 79.73159452624759
712, 102.7341282950174
713, 117.67863735182982
714, 121.65149181252309
715, 115.6179156571634
716, 121.80680708484897
717, 145.25419733023136
718, 166.34495567456634
719, 179.1972231466043
720, 184.2556959726212
721, 181.94750315543888
722, 176.06778747805265
723, 167.55323179111383
724, 153.34997765096523
725, 133.00474120993522
726, 112.97979602724536
727, 94.6418351407001
728, 69.70252595319653
729, 37.422558252363615
730, 21.26596901818266
731, 28.081745256205977
732, 24.483897918426464
733, 3.3042072151001776
734, -6.78097285513104
735, 0.1505003556221709
736, 6.679506249204223
737, 8.514559501513304
738, 9.008257906054041
739, 9.330499391210196
740, 9.737157652516089
741, 10.109908975324743
742, 8.445493794454705
743, 4.490057845281626
744, 1.0979776931990273
745, -1.3230440824768266
746, -7.205800104925856
747, -16.654930633303593
748, -16.958480254863844
749, -5.885592684824587
750, 9.45053983183334
751, 26.047815885627642
752, 30.267843629033905
753, 21.332491121674593
754, 14.844587473808588
755, 13.374203596461939
756, 13.092105014329263
757, 13.5153984851504
758, 16.136102389823463
759, 19.476233548073196
760, 13.411677686264738
761, 0.20425700181567663
762, 0.7967507684461452
763, 14.682896902717403
764, 23.667316364620092
765, 25.562037466613674
766, 21.550876260344012
767, 12.534491417856316
768, 1.6449891941797432
769, -5.092770502875737
770, 12.511808820446731
771, 47.97611751162958
772, 70.28109122538035
773, 79.32050760300308
774, 82.92735300278218
775, 77.97863255441189
776, 54.02993744661444
777, 24.50912030894824
778, 25.35120438189506
779, 44.12211466299232
780, 48.13149507634307
781, 41.796678179318405
782, 36.87301333902997
783, 32.88061983250191
784, 28.28988675226583
785, 30.692481474405213
786, 52.48294813209213
787, 77.53792073841305
788, 82.53317087426421
789, 74.50823189013727
790, 62.48753084598957
791, 47.034385098006624
792, 28.729438248724364
793, 10.945845397030553
794, -2.087376683702132
795, -7.83487078607277
796, -3.8422949414584764
797, 8.61369075316179
798, 29.435332196589115
799, 45.80806579332102
800, 50.98955400836803
801, 54.74965627576012
802, 61.90132873202856
803, 69.71568473877414
804, 76.49867381221293
805, 73.04599053599031
806, 57.184652350777014
807, 45.354953383943666
808, 41.351894342993546
809, 31.02254237685338
810, 12.71378094525744
811, 3.6027628780116174
812, 5.880576383913194
813, 6.7971203606057315
814, 7.1226223688590835
815, 23.20162089422547
816, 50.258635475699066
817, 59.89357642568257
818, 51.86190067129155
819, 37.31145123870783
820, 18.75166084130251
821, 0.6570015202864852
822, -12.206355571836866
823, -10.325937851083836
824, 1.1091068640894264
825, 11.404763464702228
826, 17.056204829192666
827, 13.036055263506569
828, 3.439117411789539
829, -5.858767663036815
830, -7.926108975158513
831, 5.249881483021909
832, 22.538718832834093
833, 33.16577792785529
834, 40.43769553745551
835, 46.50042280279149
836, 50.50428259597538
837, 52.052179263080234
838, 52.23696949952409
839, 51.61609950794491
840, 51.678591134902945
841, 52.78880908364772
842, 53.60352148957372
843, 53.71031173988467
844, 52.662934805833174
845, 51.12942330327314
846, 53.34179782390811
847, 59.756506781511234
848, 69.53066804346645
849, 81.09539004750195
850, 89.59854382010053
851, 90.3420673162068
852, 72.28793338473861
853, 42.947931226975015
854, 18.296700569638688
855, 7.1379355800741
856, 18.30332973572058
857, 37.51757756690904
858, 49.12612067012196
859, 49.99307688506997
860, 37.6087026394016
861, 21.72431039614321
862, 8.703457972439992
863, 5.809717271138197
864, 15.30732427398425
865, 27.933528702872536
866, 39.61963702968842
867, 40.40027443529425
868, 29.99373041198669
869, 26.075968603693127
870, 28.26510637889487
871, 16.329959532934026
872, -4.699659140121639
873, -5.536225191826361
874, 8.728902620740882
875, 16.819668443579303
876, 20.25010763831051
877, 24.763088481043724
878, 26.407474001587616
879, 18.979620745325974
880, 11.912749741275547
881, 15.35607502207722
882, 19.61048423781631
883, 17.378153504681904
884, 9.416604108271713
885, -3.376402653519108
886, -11.484022266376542
887, -11.040568365355739
888, 7.227113661956992
889, 42.42021928917666
890, 61.00375801338487
891, 59.38981570264286
892, 52.778385310999056
893, 43.717011893008475
894, 33.938728415716014
895, 25.55738961377301
896, 23.371528039655004
897, 20.69169676159845
898, 5.6061574451359775
899, -4.615778516579212
900, 9.146173061237278
901, 33.032652135023454
902, 55.26129908836174
903, 61.922896300033244
904, 46.27272669819695
905, 26.194158146911377
906, 9.411505069217583
907, 4.775772550791771
908, 12.764336796402858
909, 17.782386575304372
910, 16.929991023668663
911, 9.333119620691377
912, 0.7067661754826986
913, 7.819440572526673
914, 23.374447075447733
915, 31.11548308689453
916, 30.852118573297503
917, 22.911111371238803
918, 12.242748420981115
919, 3.2779609599115247
920, 6.7843722081879605
921, 27.717393028644892
922, 40.66203653686853
923, 37.498150619955595
924, 31.004633396072677
925, 25.469363352727214
926, 26.996742493563033
927, 34.98736807401747
928, 43.466945768680034
929, 49.534171929210515
930, 47.412972612801696
931, 41.62627068903885
932, 40.00659702532403
933, 36.98704770081258
934, 26.72810731993468
935, 15.110399553028401
936, 6.217818117978823
937, 6.49673200909001
938, 18.04780374187294
939, 35.82902265779421
940, 55.608728438956405
941, 58.68398539472264
942, 46.13642064782607
943, 34.36931248872952
944, 27.39176609860533
945, 31.07874761432595
946, 37.13941171688202
947, 32.22178376770671
948, 20.27417242339243
949, 5.3310805802902905
950, -4.62718765877662
951, -5.826653262230593
952, 9.049648040107968
953, 39.20461750059303
954, 48.82477769963316
955, 35.02490680484652
956, 24.387769382974966
957, 18.864592626037393
958, 13.49155182075674
959, 12.435704498931045
960, 24.19293330833716
961, 31.753946809673835
962, 15.7114007155933
963, 3.5897541758845364
964, 13.23495440067154
965, 22.20079062249488
966, 22.427869668693802
967, 23.84622815708053
968, 26.831470696118686
969, 20.31534425221662
970, 8.895847049686381
971, 11.77240626071898
972, 19.362327062951408
973, 11.053576844982672
974, -3.378286432770892
975, -12.846551099966291
976, -12.609888423743087
977, 0.1468062549147362
978, 11.430028093584951
979, 15.186601294302818
980, 9.37990407006373
981, -4.409043896037474
982, -17.44814888410565
983, -24.482025103441174
984, -11.849319938676217
985, 5.399104309670292
986, 1.933714889262319
987, -5.2330846248987655
988, -2.3430246007292226
989, -0.8106376611490305
990, -5.246560111034796
991, -3.8554481614005454
992, 8.541335256240473
993, 41.83880497898235
994, 102.8613192473581
995, 194.2197457012926
996, 303.081902065102
997, 404.61344903227837
998, 486.8574069265096
999, 537.9323722996501
1000, 551.753694660953
1001, 526.0186283264939
1002, 476.76643894335484
1003, 407.72700634058947
1004, 309.6217542337663
1005, 193.76612157221143
1006, 104.66533234473582
1007, 40.72448213594498
1008, -4.293995354202707
1009, -26.748412125410596
1010, -20.514980088862103
1011, -8.691738915814767
1012, -2.953147611348413
1013, 3.758087069757039
1014, 15.416641891753443
1015, 40.79931217229523
1016, 80.27768600940271
1017, 118.83005244712922
1018, 159.92631411798038
1019, 211.09639050119313
1020, 264.8041621186376
1021, 313.91292654756626
1022, 355.38330753538685
1023, 386.5288598266575
1024, 394.8188365960209
1025, 377.3483731858414
1026, 336.16336843017734
1027, 276.202724056403
1028, 209.5156908727563
1029, 139.72682109259586
1030, 71.1546819749683
1031, 23.725360683647068
1032, 12.442981453360971
1033, 14.563151556231333
1034, 20.032330335671304
1035, 11.603899709865345
1036, -8.197016059445104
1037, -26.157152794621197
1038, -36.57839577378536
1039, -29.1439883568155
1040, -13.95326635023548
1041, 0.14352358524411102
1042, 7.439046170701658
1043, 5.712095530804163
1044, 5.253865291373586
1045, 6.169539810349761
1046, -1.667141528389493
1047, -14.872715831606001
1048, -24.545993920463843
1049, -32.03918715866939
1050, -38.65532053142351
1051, -33.536146825165815
1052, -13.005844582589361
1053, -8.180251498466077
1054, -22.71036833739845
1055, -34.49990488331059
1056, -42.51123819179338
1057, -49.43538739753649
1058, -47.22995866061956
1059, -25.634935959318682
1060, -1.7356089762879492
1061, 18.29642433710842
1062, 61.85841851475061
1063, 137.30272078503822
1064, 236.75297348570984
1065, 369.4142587318729
1066, 514.6035075576051
1067, 681.7715487697742
1068, 881.3286940526004
1069, 1104.2491771316518
1070, 1342.3247902830185
1071, 1560.7426479969695
1072, 1753.4267060875345
1073, 1933.7671425263725
1074, 2103.7177740365096
1075, 2264.127787779454
1076, 2393.6236247237616
1077, 2470.398879666231
1078, 2475.001508065726
1079, 2404.6176204025555
1080, 2310.202461462333
1081, 2194.6270948950346
1082, 2027.6076576459718
1083, 1820.2330989725142
1084, 1596.2954998829573
1085, 1349.718386048657
1086, 1078.2164236287977
1087, 829.9404968674116
1088, 618.7443207145257
1089, 422.0770020200862
1090, 242.9144362826346
1091, 124.0691971780484
1092, 49.2128811242319
1093, 3.5355478914748346
1094, -24.86518729761474
1095, -42.44079799970268
1096, -45.941906835957525
1097, -37.97520759387862
1098, -32.32278515801818
1099, -28.77823716469902
1100, -24.755693575465557
1101, -24.39654893769648
1102, -30.76904723416328
1103, -32.084820807633605
1104, -25.70063333974349
1105, -22.02841734757385
1106, -18.2335701220386
1107, -2.8038801871448413
1108, 14.629382467452615
1109, 20.838429855577942
1110, 22.409942295877954
1111, 22.09255785130108
1112, 15.283950712012938
1113, 4.1999925912523395
1114, -0.1692518740601372
1115, 1.7955533289573395
1116, 8.30373881692094
1117, 13.705874956815933
1118, 14.598174032918905
1119, 11.457652412815605
1120, 4.1132301126854145
1121, -8.710114906587023
1122, -16.18189714075106
1123, 2.589450060133913
1124, 21.816814479447203
1125, 20.665108732518092
1126, 10.247554681895508
1127, -3.4376968942005988
1128, -9.403712687731513
1129, -4.4687623942954815
1130, 16.587385288823043
1131, 36.182717343388504
1132, 39.401462367779004
1133, 38.09284694226835
1134, 38.27490515174895
1135, 49.022951180136715
1136, 66.83417865070578
1137, 80.8626541908825
1138, 86.79383591290753
1139, 81.15403619722701
1140, 65.6341908562913
1141, 43.82107228679979
1142, 31.90397284894334
1143, 26.78940133363585
1144, 15.924755196799197
1145, 10.589765190936305
1146, 19.073403208326454
1147, 33.34594084949731
1148, 46.985021184202196
1149, 39.74550377006881
1150, 17.00453197784418
1151, -3.3180094472127166
1152, -16.43419915332879
1153, -19.9271609484922
1154, -15.197562831366213
1155, -4.436471099758819
1156, 2.4476070755649744
1157, 8.508285967687243
1158, 20.78387268536926
1159, 35.604131568200955
1160, 49.04235718655082
1161, 47.62517356185526
1162, 32.84285200499744
1163, 26.945499683299204
1164, 22.218879066805584
1165, 2.636180236490418
1166, -8.721939356898929
1167, -1.245922924224942
1168, 4.758277505926799
1169, 11.532227511917426
1170, 41.68380849180039
1171, 75.54324869033826
1172, 87.90863415494368
1173, 99.49874242128908
1174, 117.61715188443486
1175, 124.83996280466636
1176, 131.27486590483977
1177, 169.81485914673704
1178, 212.29136919006942
1179, 232.11986269775934
1180, 244.88673931963604
1181, 254.5585365661209
1182, 253.98822920733937
1183, 248.28874814286746
1184, 247.93066849315892
1185, 235.55952892228242
1186, 202.05016318018716
1187, 166.9305839437775
1188, 133.34855625028013
1189, 96.18605413966225
1190, 62.56475523778363
1191, 40.93656796200594
1192, 21.9188899812857
1193, 6.824346770235479
1194, 11.363714527567026
1195, 22.031478802359743
1196, 4.119031086685936
1197, -14.544090741445416
1198, -16.524119509729644
1199, -12.655466948020148
1200, -3.0479131045244685
1201, 21.030533078282588
1202, 40.54776007128248
1203, 31.947936608848977
1204, 15.387175163019947
1205, 3.3125646426633466
1206, 16.58044521392094
1207, 42.291517700416534
1208, 50.194098219886655
1209, 54.07368345863142
1210, 62.23885323251625
1211, 62.184993729970756
1212, 55.68598269556924
1213, 56.80526630172608
1214, 55.04901659597681
1215, 39.74833163784842
1216, 30.236233565271505
1217, 33.098087885603945
1218, 46.702764673250385
1219, 58.72307777329115
1220, 50.55486985385505
1221, 28.61749700075916
1222, -0.41373861253032373
1223, -15.613307794041702
1224, -17.19982858115418
1225, -10.654299242087745
1226, -2.540589046079276
1227, 2.701000040024155
1228, 3.7289607918119145
1229, 2.5177950950160266
1230, 7.304589283094174
1231, 8.650550709402978
1232, -1.9408674425039862
1233, -7.274144651854385
1234, -3.2599240341078257
1235, 5.813589704942842
1236, 13.475116399971284
1237, 10.284942154486998
1238, 5.455746922401431
1239, 5.047806480517011
1240, 24.07066922656304
1241, 54.84553897072965
1242, 75.363617181074
1243, 88.06540661787949
1244, 96.67086903876589
1245, 115.44358004431979
1246, 140.15128510745262
1247, 157.0242770488121
1248, 171.33982542036847
1249, 185.86368684054287
1250, 193.53169837502128
1251, 202.7054505625283
1252, 237.05027970868468
1253, 270.8863406508781
1254, 285.7087287988461
1255, 297.37441684751957
1256, 308.1654930181012
1257, 313.55719991859723
1258, 317.2711568142222
1259, 322.95208526813076
1260, 333.10418642129025
1261, 347.2811991613953
1262, 362.0366104033942
1263, 377.3868283727584
1264, 392.19732382982556
1265, 389.3655702259416
1266, 370.49969584093833
1267, 357.28984751285634
1268, 348.94981262766896
1269, 342.3418183343574
1270, 328.2547263624838
1271, 308.2590518249631
1272, 297.162466434253
1273, 289.134393733088
1274, 277.23877148354813
1275, 265.4613541828153
1276, 251.98651881761998
1277, 226.59674491287615
1278, 196.63466344647986
1279, 170.7154115832859
1280, 153.02848568475065
1281, 139.9922314103169
1282, 115.95047152262578
1283, 95.4070595361336
1284, 101.62040635542189
1285, 107.86602611907847
1286, 112.50740529208542
1287, 125.66862997826547
1288, 125.29238866665173
1289, 94.93975780788605
1290, 73.2016480802049
1291, 64.87962816446998
1292, 55.044707832880704
1293, 47.463120745202104
1294, 44.59242795948239
1295, 36.17750536035737
1296, 25.97282100448365
1297, 31.101862565397823
1298, 26.818463913691403
1299, 2.4218349156267323
1300, -7.944209799875807
1301, -6.936194494208166
1302, -11.168156382838106
1303, -6.653841323080542
1304, 10.252816357923166
1305, 9.914323091800497
1306, 2.590366140942251
1307, 12.934814040009996
1308, 16.424975124708453
1309, 5.8220367726539735
1310, -0.3338295921619192
1311, 0.5482947084965417
1312, 8.154589372172723
1313, 7.767729000003783
1314, -2.776396647322599
1315, -12.748827913710556
1316, -19.02237616347702
1317, -18.487426701261256
1318, -4.245125935393617
1319, 20.151346851570906
1320, 36.98185955049803
1321, 42.424399156494474
1322, 35.858011729327245
1323, 27.493252047136366
1324, 16.76282985788953
1325, -0.948006060665648
1326, -10.70727658674059
1327, -7.056418903240683
1328, 4.110153467053351
1329, 17.53727292392273
1330, 25.9949910024759
1331, 24.297528336790265
1332, 12.196371966309925
1333, -5.015248293087097
1334, -10.186978786328837
1335, 8.416267021032809
1336, 24.912553606831352
1337, 32.89411891529744
1338, 32.46586835391486
1339, 24.48045622386894
1340, 11.667128672409945
1341, 6.1073610436078525
1342, 5.886867319219618
1343, 5.562218062341344
1344, 3.1176881867609154
1345, 0.6304290207390295
1346, 6.111064091298658
1347, 11.189191492919463
1348, 9.389493980492489
1349, 10.770989889122802
1350, 16.94439337046174
1351, 26.378336823415793
1352, 31.993530412098153
1353, 30.45947532704099
1354, 22.95904993982117
1355, 9.381790583363227
1356, -8.483003377825753
1357, -5.222595896438179
1358, 11.757419011261845
1359, 2.031618829129229
1360, -5.910815255462239
1361, 3.4744896556171625
1362, 10.55493740438942
1363, 15.668994087196324
1364, 24.17209444056948
1365, 24.4661520495074
1366, 16.55397094613818
1367, 13.664157240637905
1368, 17.350930126083767
1369, 25.353011128462867
1370, 18.870826237825895
1371, 6.347373805972438
1372, 8.384452430533429
1373, 21.762258740571042
1374, 40.27060103940107
1375, 50.762099205352115
1376, 53.12224937318388
1377, 48.45418336785474
1378, 39.05565513614147
1379, 32.876055032925024
1380, 42.20528637956886
1381, 54.65020940884574
1382, 60.512882903087984
1383, 44.34372287576866
1384, 21.564909714903706
1385, 5.152334379729609
1386, -6.03577694463479
1387, -6.322739182789974
1388, 14.356016637314724
1389, 32.83931755752769
1390, 42.26822020658301
1391, 54.83093859688597
1392, 58.56328821241118
1393, 48.94452607562471
1394, 52.27616695688425
1395, 64.71489827781261
1396, 74.96307680704399
1397, 82.36176279594088
1398, 87.51573006582203
1399, 92.45419648392613
1400, 98.92109066900662
1401, 105.84580362154179
1402, 103.99184576961238
1403, 96.51452826933087
1404, 89.7688854184355
1405, 100.10024265936431
1406, 119.02785699327865
1407, 123.18397774093955
1408, 125.18571634475188
1409, 127.77157441970553
1410, 121.44981197835409
1411, 115.79815601344922
1412, 115.44693272911331
1413, 102.7325811519811
1414, 89.45816887418232
1415, 92.38654801058942
1416, 79.33002411826146
1417, 51.20631467285398
1418, 31.219696744622524
1419, 30.141075535031177
1420, 43.43957584343502
1421, 53.82265611316143
1422, 59.41814605407535
1423, 56.341998043783406
1424, 21.38322077853877
1425, -14.319031626113201
1426, -8.099044379226143
1427, -5.8654983068265665
1428, -7.237228470107539
1429, 16.274635371813247
1430, 22.022918700435866
1431, 2.585637618420378
1432, 2.817990722980312
1433, 8.752266507766763
1434, 8.574386631925336
1435, 9.306284940012802
1436, 10.368340651783228
1437, 9.271105414662088
1438, 0.7365441039644338
1439, -8.62210604380789
1440, -5.485249273452837
1441, 13.062879560851343
1442, 38.609733314323876
1443, 44.86859005058204
1444, 38.11877138200202
1445, 27.12455707970389
1446, 29.934456931722025
1447, 47.18179638442302
1448, 72.77177551884711
1449, 76.08112503964844
1450, 67.69055830830212
1451, 65.70678256653719
1452, 58.20960087611229
1453, 49.20767889682702
1454, 50.045989387281224
1455, 42.75602541440412
1456, 32.474039329251355
1457, 47.26998486262505
1458, 59.42953899086751
1459, 56.84034361388717
1460, 47.09076612907779
1461, 29.46936312970638
1462, 8.321104501328819
1463, 9.734715112510457
1464, 34.01799956126274
1465, 71.90258357965672
1466, 87.47563006733503
1467, 85.54020393793121
1468, 80.56377215619636
1469, 66.81769242392079
1470, 52.16784020059072
1471, 52.26744199731684
1472, 58.15827635550704
1473, 69.78014098732024
1474, 92.70302909461361
1475, 95.78046493901593
1476, 75.57678410283074
1477, 61.20975282152176
1478, 53.313074585722234
1479, 54.027136951301145
1480, 73.3353413733073
1481, 74.33713095284611
1482, 40.53395849911681
1483, 16.32398737687754
1484, 10.118820223607827
1485, 19.8444625254499
1486, 29.92587239782506
1487, 30.193879018818052
1488, 14.441456459848268
1489, -0.4822666928014314
1490, -5.770745178372863
1491, 3.3591950632774115
1492, 9.596440990974088
1493, 7.4321117314109415
1494, -2.6528505855492313
1495, -1.8052431856797284
1496, 1.9593004607829698
1497, -13.94561325591144
1498, -13.021076145628513
1499, 4.020303083264025
1500, 9.581194705926237
1501, 21.613731324601304
1502, 36.65722565370197
1503, 29.325570980494604
1504, 26.023827728034348
1505, 32.523948500248935
1506, 31.584475070966164
1507, 22.86707327404133
1508, 9.617936054615939
1509, 0.7640479499966659
1510, -2.822289437847985
1511, -1.9142356690235829
1512, 1.8048450927628892
1513, 4.108820644444222
1514, 7.551844843010031
1515, 30.82179159596876
1516, 43.94286244468435
1517, 33.17095766031389
1518, 21.027635247901344
1519, 0.7833917714469862
1520, -20.802482606635976
1521, 3.952698499788994
1522, 28.27838524821368
1523, 21.58211443315463
1524, 13.094135633714814
1525, 9.930138129879879
1526, 15.607690692074812
1527, 33.200562542272564
1528, 36.551830656314905
1529, 14.341362451089253
1530, -1.3932277227488612
1531, 2.389393870032336
1532, 25.266692522951416
1533, 35.07559647661651
1534, 31.33626830494063
1535, 18.491408522470692
1536, 5.9802122363914805
1537, -3.9179992670478896
1538, -11.624547637464048
1539, -21.18889213751845
1540, -15.839755822878487
1541, 5.112865268695714
1542, 0.3248277341058383
1543, -6.069110056826048
1544, -0.9876307361143972
1545, 3.8614318750312577
1546, 7.869770808507155
1547, 7.496176484349235
1548, -8.718434967524217
1549, -14.251475406499594
1550, -0.9962430878574651
1551, 13.906430909269375
1552, 14.378536077161016
1553, 1.5556431551201513
1554, -2.7660378447928906
1555, -3.3645702717944914
1556, -7.926699935256465
1557, -28.132735982268514
1558, -42.534214171178974
1559, -41.58397404101311
1560, -22.38056985292951
1561, -4.38415994432421
1562, 5.88348613866151
1563, 9.115403370865579
1564, 29.046842122161934
1565, 71.97434235813785
1566, 138.63018002224612
1567, 233.62799935115117
1568, 327.135271763593
1569, 402.43191333488676
1570, 478.55592767682924
1571, 552.0313523720386
1572, 622.0296552066288
1573, 724.0623492775853
1574, 844.247255814804
1575, 968.4751895473469
1576, 1103.421925531269
1577, 1203.7353549015081
1578, 1254.9114986619002
1579, 1310.4487224939182
1580, 1364.9446509350273
1581, 1402.3495561715386
1582, 1392.2866939597197
1583, 1321.1725914986346
1584, 1198.073656004113
1585, 1053.002896458047
1586, 892.4948263828605
1587, 727.7208697143174
1588, 575.5694186261337
1589, 449.2572667647855
1590, 339.87243655360544
1591, 231.8476061926467
1592, 119.53286390720632
1593, 46.120594767076454
1594, 25.02031745038562
1595, 20.495589500107144
1596, 10.111646226034736
1597, -11.711093723464046
1598, -24.716905260459725
1599, -23.120793988749938
1600, -11.58687652208232
1601, -6.6460949293989415
1602, -16.590562024098745
1603, -27.428744930663925
1604, -13.675156256131913
1605, 0.9733313323044968
1606, 9.391357815190759
1607, 7.410367060321732
1608, -10.572967831572896
1609, -19.70015644998989
1610, -5.211938163512286
1611, 16.106973078029796
1612, 26.814125212517638
1613, 20.100499358102752
1614, 1.2347284721445249
1615, -9.460226298665475
1616, -8.943955327057665
1617, -3.1536862385728455
1618, 1.400210033985104
1619, 0.32856600854938733
1620, -6.544522486826054
1621, -3.491092746168306
1622, 4.1539283204881485
1623, 11.859735546537195
1624, 20.85549221690235
1625, 13.434251083875097
1626, -6.166441114251029
1627, -12.476271483390747
1628, 3.6079563345390397
1629, 22.845943682602183
1630, 19.572084713625827
1631, 19.92202502772102
1632, 12.310032605172864
1633, -4.550056280845183
1634, 6.899419908806522
1635, 9.173600286037527
1636, -2.532750270936276
1637, 1.6968241503934678
1638, 5.92273452415202
1639, 8.550391704300864
1640, 13.705113970292132
1641, 18.89845568339979
1642, 22.02619067087585
1643, 23.358418647784674
1644, 26.71702419510916
1645, 5.744278306118304
1646, -21.35372846307814
1647, -6.301511733217694
1648, -3.2716168144897892
1649, -2.356929756220552
1650, 11.511376249715113
##END=



