##NAMES=
##LOCALITY=
##RRUFFID=
##CHEMISTRY=
320, -17.533611191638556
321, -10.464017223324845
322, 2.857028175920277
323, 20.44334073614482
324, 36.71714982789672
325, 42.38897019568685
326, 38.81727319645688
327, 31.90423074582577
328, 22.583848279582526
329, 16.495967695953368
330, 13.998550041660565
331, 20.26530888374691
332, 38.89962046980145
333, 65.59127906186222
334, 88.63406790830777
335, 109.316510512881
336, 131.26185582191283
337, 152.75429314970643
338, 161.86799605487977
339, 157.2344119521622
340, 151.85702701533046
341, 150.68611808236528
342, 149.70405081874378
343, 145.60503062033058
344, 137.81785451894575
345, 125.28489900454042
346, 107.28474983922752
347, 81.08677357405577
348, 47.95862187794228
349, 27.15924396090486
350, 20.24229521522102
351, 29.74314515358128
352, 58.27432247397337
353, 82.42707748635985
354, 79.06901766186093
355, 58.171571905002565
356, 43.705994837257094
357, 33.960323800798506
358, 14.998136807687843
359, -11.544120884478616
360, -21.477205248214887
361, -7.902243080970948
362, 3.3562368189377594
363, -3.655954635984017
364, -14.145077765551832
365, -7.949101254222114
366, 7.688344207568662
367, 11.243888947756204
368, 3.378585543434383
369, -3.926997282420416
370, -9.197992536937818
371, -8.147429472495787
372, 0.9089207166198321
373, 10.028200729992022
374, 13.020113649545237
375, 8.523963784668013
376, -5.4612093265877775
377, -22.021167926026465
378, -20.92948861070181
379, -3.7894631893559563
380, 12.229544102761793
381, 24.388617394946777
382, 33.52909358622128
383, 39.836479441059055
384, 31.819769180778167
385, 1.698482477115249
386, -28.962659192064166
387, -33.01426522732072
388, -19.05408749113849
389, -8.86539490330324
390, -3.377557110541602
391, -5.394800579400908
392, -15.121965743763212
393, -26.800811368901122
394, -39.377204621372584
395, -45.75361390729449
396, -41.58502516063709
397, -28.10589427378909
398, -5.9617591651731345
399, 16.07401587185268
400, 12.884273895359001
401, -8.703072272714053
402, -14.204004838007677
403, -2.577974163021281
404, 1.524444666938507
405, -7.307945747459598
406, -9.28680634122793
407, 5.174458124733064
408, 21.694393769663293
409, 25.345231963970946
410, 27.078583526032162
411, 42.08790926767506
412, 66.77710095803195
413, 79.11465549539753
414, 82.2292307664975
415, 113.55509821282249
416, 179.1146396262393
417, 231.96204014579416
418, 260.21265210499405
419, 278.89018077445326
420, 297.3356927247096
421, 314.39774452028905
422, 328.69207176748023
423, 341.5353892855037
424, 355.8589826012212
425, 368.1947492731597
426, 364.1148173608017
427, 343.8496931214504
428, 321.31247137018
429, 299.3101864917098
430, 274.0524766992312
431, 244.01843543454015
432, 204.34789269462453
433, 151.6257459685894
434, 92.2833995306355
435, 44.103616319527646
436, 6.526750005999929
437, -14.210860420285826
438, -20.87314476334359
439, -18.80094160718727
440, -9.430208138201124
441, -0.9334393784156418
442, 5.606699340742125
443, 12.100528763086913
444, 19.732454830344068
445, 34.45541482834233
446, 61.26181346575504
447, 91.01500987684813
448, 116.62078296923028
449, 136.76081555872224
450, 148.60134713360458
451, 151.31159008250324
452, 142.14044457019736
453, 121.90149777715669
454, 97.96768962192073
455, 72.18846557092547
456, 51.25044756946227
457, 42.43392483782736
458, 41.82841901167012
459, 43.490800678002415
460, 38.68071140016582
461, 18.79748481199931
462, -4.2051145376462955
463, -15.244646875222315
464, -18.73138177457986
465, -25.43579435506399
466, -33.84381200093412
467, -30.81543055021757
468, -16.396549488381424
469, -9.5344942015563
470, -13.642561953256518
471, -12.023491116304285
472, 2.1986059042992565
473, 15.096949519269401
474, 16.26732869985426
475, 11.878602916196542
476, 9.009227984885001
477, 3.991975211065437
478, -9.825108536204425
479, -28.313894149498083
480, -35.61186885499592
481, -32.35795294577838
482, -24.321626241027843
483, -11.26849122476051
484, 10.889523754110996
485, 43.99469323178164
486, 65.14217794040997
487, 65.80975303712148
488, 56.78278892757044
489, 44.918352065556974
490, 29.35855135512611
491, 9.194250595923222
492, -2.9891417713533883
493, 11.830251146322553
494, 40.15214097262833
495, 38.756675527569314
496, 12.214999594611072
497, -7.8540281033856445
498, -20.271215785074673
499, -28.87467992339407
500, -34.73024203834757
501, -34.02579302464801
502, -25.49765476823086
503, -15.787037981370304
504, -7.6308060356241185
505, 1.630451217853988
506, 14.35677790992122
507, 31.1049247300125
508, 52.64365514331803
509, 78.30935744767157
510, 97.30296320490015
511, 113.25561556907815
512, 137.50968562184062
513, 168.33799370920315
514, 194.17640954137278
515, 214.22859360823168
516, 233.46146306872288
517, 252.0416153456099
518, 258.2793298291399
519, 248.44788959310245
520, 221.8804440146905
521, 178.32900120628074
522, 128.30725470651487
523, 79.36522919262097
524, 49.179735739899115
525, 45.65727423686985
526, 55.07047067627536
527, 50.011191730680366
528, 35.50904823082237
529, 25.225583444498625
530, 19.815745644000344
531, 9.301367812904573
532, -4.063957810014472
533, 2.0651939594863506
534, 28.495338305037876
535, 43.222670412706066
536, 39.54958123555298
537, 32.194517585277936
538, 26.262015890672046
539, 19.561872984242655
540, 12.968826162816185
541, 11.080874826720901
542, 17.591901408120975
543, 29.182006923732843
544, 42.60805702624202
545, 61.13362782282093
546, 83.62580312357568
547, 105.49902075095451
548, 116.0190733422096
549, 119.04365213169149
550, 128.6875660927526
551, 144.04470111326737
552, 155.61134367447812
553, 162.07025396077188
554, 162.74683397346598
555, 156.3540144395738
556, 130.09038278647859
557, 81.62400364901441
558, 34.77590829531982
559, 2.2379542192484223
560, -20.075283975376806
561, -34.80641252341593
562, -34.75401942407916
563, -13.3807326822498
564, 14.682788085701759
565, 34.150073656226596
566, 42.744019437788666
567, 39.2462684356924
568, 26.713342866489256
569, 11.5465764924611
570, -0.48857648630291806
571, 1.907515715192858
572, 12.774310595888892
573, 5.0288551319426915
574, -18.245330260560877
575, -31.306201475110356
576, -31.804512528491614
577, -23.49117152385952
578, -7.5659712171400315
579, 3.104828887626354
580, 5.600196991246776
581, 1.5468622525786486
582, -7.7614811157200165
583, -8.5473389077506
584, 6.3420948364946526
585, 23.627446302391036
586, 32.82834424270732
587, 31.979874930229926
588, 19.318636959529613
589, 3.9722228436421574
590, -2.5092656247361447
591, -0.2551145760444342
592, 11.757848888961234
593, 25.52761113179804
594, 24.062406591749095
595, 11.465961889802202
596, 0.4654140665570594
597, -8.276905842605629
598, -16.024340627134734
599, -21.523776986958183
600, -15.818020212513147
601, 0.33453834898136847
602, 13.233913948670306
603, 20.234286191905994
604, 21.144126510329443
605, 16.511805036730948
606, 13.154405218059765
607, 12.3979235006409
608, 3.6942603962888825
609, -15.654925107444797
610, -26.94288712537127
611, -22.270286146276703
612, -19.47660500092934
613, -28.591577142819006
614, -32.33089029666553
615, -18.032994845474605
616, -5.677454470302109
617, -13.516101141394756
618, -23.979984764966503
619, -16.773911257570944
620, -1.316205585419084
621, 9.108242201797111
622, 18.09002488445367
623, 31.346539747723
624, 44.02308039212221
625, 49.18389081769783
626, 48.04485109206871
627, 44.54270285520033
628, 46.33641167942187
629, 63.35779200689285
630, 95.16218499865681
631, 123.89770301141652
632, 147.91211655073676
633, 164.95494317058547
634, 175.96283494949057
635, 188.2757443400351
636, 202.37955852713458
637, 212.91627517753113
638, 219.4108315348658
639, 227.50465288655505
640, 237.78495184811436
641, 240.87980139626234
642, 234.63344538723322
643, 227.93716775165922
644, 223.55658407944793
645, 215.31708042937862
646, 201.04166107184938
647, 190.4061118378013
648, 187.6412938927533
649, 176.69432965913256
650, 148.88292590228048
651, 117.10273374532699
652, 89.60975388056613
653, 64.74531356323678
654, 47.75056750784643
655, 39.961243311467115
656, 43.23997270232758
657, 44.44484215522243
658, 34.25824039907275
659, 16.025048460431208
660, -4.688593519442293
661, -21.736917870141042
662, -25.640771228443555
663, -23.45065481514939
664, -25.390679519157857
665, -26.324773436053874
666, -16.76203244052158
667, -3.9248003316806717
668, -3.0663864756588737
669, -7.684622213137118
670, -3.0482095191182452
671, 5.279148966359571
672, 1.372718218859518
673, -10.934324104515326
674, -20.694444239232325
675, -23.74681664596028
676, -6.934864516304515
677, 24.30768515726413
678, 46.23940404407222
679, 57.89126746250622
680, 72.562282025694
681, 86.18758590182733
682, 77.42617754569801
683, 51.94645427611431
684, 44.63719630916603
685, 58.79384425720673
686, 64.49525374561745
687, 60.34772155068276
688, 56.558629330509575
689, 53.33341936062061
690, 43.44769099315636
691, 27.31151208584015
692, 14.479092345287427
693, 7.754186541125819
694, 4.601800054393607
695, 3.575023902099929
696, -1.0834411520354479
697, -10.098450186225818
698, -17.771458572629854
699, -23.025856304564513
700, -22.594316630456888
701, -16.53821930592676
702, -12.598690732591422
703, -11.91704201387438
704, -10.507711931944868
705, -7.364405186595832
706, -3.126753294496666
707, 3.1018319173454074
708, 19.43212495703665
709, 47.26810839466998
710, 60.32550745833214
711, 53.38866943424546
712, 43.39992802261986
713, 34.99675552325061
714, 29.75535100111665
715, 27.852856300878557
716, 44.53703856184984
717, 84.01008041871683
718, 116.03481876550904
719, 134.23250179921524
720, 156.54539076808578
721, 187.06348520041502
722, 207.66376592758934
723, 213.11874588164937
724, 208.10864948814196
725, 195.14488670006904
726, 188.18713480070255
727, 190.15498847821618
728, 182.716940383747
729, 160.8957771517671
730, 133.4629189979114
731, 102.52684669327755
732, 60.767441534932004
733, 14.633262192377515
734, -8.517139686764494
735, -3.800303333096963
736, 1.4329857702105073
737, 0.01783120643995062
738, -3.1079976388737123
739, -6.444019506441691
740, -6.280455046056886
741, -2.5161744713350345
742, -5.746195234083643
743, -17.7618314722622
744, -24.913519865001945
745, -24.45555740792406
746, -19.950693430604588
747, -10.96824497675152
748, 11.22457913114522
749, 47.95041602978563
750, 74.9068752541425
751, 87.67427582074015
752, 92.59631552050087
753, 91.2320812663038
754, 85.08605756329416
755, 75.58766856260627
756, 70.40286994653616
757, 69.1697879892672
758, 60.53058312980829
759, 42.838393621765135
760, 18.069043209037773
761, -8.590887795453455
762, -23.395444859143026
763, -25.485273329613847
764, -15.519086828680884
765, 3.723857911192681
766, 17.332963507744353
767, 22.29187230583375
768, 16.166562429410988
769, 3.5321957942323934
770, 3.0486100421476294
771, 11.617287165649032
772, 12.346021333965837
773, 5.057176253161742
774, -5.932718703325008
775, -16.17371095109047
776, -11.75902375869373
777, 2.6945171427341847
778, 13.386134419097289
779, 17.6477815169892
780, 11.715281727221736
781, -1.1944137060399953
782, -14.273930118733915
783, -21.782435405420983
784, -11.923038355091194
785, 10.74640057380384
786, 39.04008073836303
787, 63.62084286120444
788, 72.8538988578548
789, 71.18883866479518
790, 64.29991851328668
791, 54.27906791690293
792, 43.369280086748404
793, 31.9237338867988
794, 23.48061696901277
795, 23.09039031335851
796, 35.32215371273196
797, 53.52375969300556
798, 68.84660595379137
799, 84.56680008456169
800, 102.29135062451132
801, 110.50510511816537
802, 104.03546404698136
803, 98.51886358928641
804, 100.24673218533098
805, 100.90745129199058
806, 97.54786793953281
807, 91.71744091690016
808, 83.00867340802688
809, 62.14678237017506
810, 29.5267332279509
811, 11.487353129219628
812, 9.341928917778205
813, 9.334720817014386
814, 12.42721414532025
815, 37.30878019767988
816, 73.89884459466157
817, 71.52865108500555
818, 36.72073804264073
819, 14.475338373926206
820, 5.036584855533874
821, -8.215503533063384
822, -18.082559481004864
823, -2.076904892166567
824, 30.422223765597664
825, 55.30736572434762
826, 69.4584341339123
827, 68.88273799250783
828, 60.51570623139196
829, 53.63869404716388
830, 39.576760128384194
831, 9.199000919419632
832, -15.278888621913211
833, -18.89216635228695
834, -17.838259280533748
835, -21.940143184949193
836, -13.326528043215149
837, 17.074475903418715
838, 41.006636733711275
839, 44.709170228012226
840, 43.44066311271672
841, 41.89567660704961
842, 36.15669743444414
843, 25.584102767063087
844, 13.068533350602593
845, 1.5982215475869452
846, -3.884121471282924
847, -4.910283268147396
848, -9.782221243543972
849, -16.936488356072005
850, -17.277941459711656
851, -14.128404930876059
852, -17.54841602009401
853, -19.17682700295154
854, -0.9049357667972799
855, 28.288504800828377
856, 54.128655071837784
857, 77.19528054068178
858, 101.579469381335
859, 115.0982234374369
860, 107.71705087878036
861, 99.5540089208007
862, 103.09018724159432
863, 110.90346724914525
864, 119.24768634236534
865, 124.73494941848548
866, 126.31701676368175
867, 125.91556566539111
868, 123.46993793975162
869, 114.73387731424191
870, 98.37134052453621
871, 71.86810617903393
872, 37.58907962547164
873, 9.53969112545201
874, -8.392562876299053
875, -2.1410531223355065
876, 16.79910849861153
877, 23.502322379999896
878, 19.965708582612933
879, 12.932190776673451
880, 10.450224139949569
881, 19.402847694544107
882, 28.255359613462133
883, 29.062267299745145
884, 20.176931409760073
885, 1.4289163958364952
886, -12.421557784302422
887, -16.490508066337497
888, -5.1745405107831175
889, 20.3328689781265
890, 31.302614191461544
891, 25.813651231334006
892, 23.053229997631206
893, 23.688492550985757
894, 21.152558134614083
895, 17.620952519524508
896, 19.739279161300146
897, 19.666301624101834
898, 3.359760881465263
899, -13.032909518773522
900, -12.031543292021524
901, -7.087713245487976
902, -8.403000322419757
903, -7.518749648261291
904, -0.1673970785104757
905, 3.6019369396835828
906, 0.29334698215643584
907, -3.4438438682627748
908, -5.920933694585983
909, -5.440586087141128
910, -0.8396913049073191
911, 11.59092291881825
912, 28.833583785009978
913, 36.44331436271932
914, 38.157467184313646
915, 42.9543946150643
916, 43.89009388742306
917, 31.47334125684756
918, 15.223911620574654
919, 4.914182564163639
920, 3.1618057646264788
921, 11.732058994819454
922, 29.13140023514461
923, 51.646515768454265
924, 63.17884868449619
925, 59.715528180760884
926, 41.696618625612246
927, 17.84130756043851
928, 22.391710470637918
929, 45.71846029389235
930, 52.90952006999396
931, 50.42901523679029
932, 51.33832555649133
933, 46.3254871723384
934, 25.71391059384041
935, 7.728004386754037
936, 4.701202816453588
937, 8.217694672383004
938, 14.813468257621935
939, 21.076250671638263
940, 25.205816198447792
941, 32.168883728883884
942, 38.254032409928186
943, 26.029774389711747
944, 6.17039745080001
945, 9.54501943312971
946, 21.143632574114235
947, 13.92335173236279
948, 2.4090625680983067
949, 0.7413473313390568
950, -4.367591727137551
951, -19.364127569406264
952, -14.34639972365585
953, 17.11869960497461
954, 27.083255760782777
955, 11.23148930458592
956, 5.67966778452319
957, 11.807614215167632
958, 21.778454759910346
959, 34.782540377847
960, 52.607085630129404
961, 61.15143499952319
962, 44.44406455889202
963, 22.797851363202426
964, 9.707269339392951
965, 2.9538062143292336
966, -0.39669269843852817
967, -9.806003951820458
968, -25.277735806471355
969, -31.480540854328865
970, -26.39854412825207
971, -8.888421309638943
972, 12.752546542147684
973, 20.402425628293713
974, 16.50370080256471
975, 4.406233603360306
976, -2.9593694514160234
977, 1.281689849367467
978, 11.920316825267037
979, 24.526859709666496
980, 21.099993520105272
981, 2.0591821606840313
982, -12.361072962915387
983, -19.749813396399077
984, -17.096306901565185
985, -9.888052781629085
986, -6.643021725272774
987, -3.9620292045437964
988, 1.1326578175003306
989, 7.691555625046931
990, 14.284818086644918
991, 13.903266328168684
992, 5.059436005873977
993, -8.619080010668767
994, -19.585916960975737
995, -1.8403854140360636
996, 26.361470687752444
997, 24.104381866354743
998, 10.307480798746838
999, 6.436659957897973
1000, 9.48575195471858
1001, 19.249170363965277
1002, 50.3861808583506
1003, 96.238439021683
1004, 98.32308031870434
1005, 58.20416054220277
1006, 16.850944378007625
1007, -14.055192890847138
1008, -24.901034051790703
1009, -17.814605413001118
1010, 6.127605656473861
1011, 31.02192007366557
1012, 49.7284327328598
1013, 68.16745258042465
1014, 87.53562145171873
1015, 97.98388580544633
1016, 96.64262960057113
1017, 79.61238221744225
1018, 56.49697928463138
1019, 44.69196897239635
1020, 49.12900416487264
1021, 64.76980890417508
1022, 68.33672881433813
1023, 49.926981040567625
1024, 24.692882123182244
1025, 1.570147227119378
1026, -9.858692513390451
1027, -10.78311782048786
1028, -5.494744532514233
1029, 2.88225013300962
1030, 10.46162458166691
1031, 21.623457367313677
1032, 39.83442739615839
1033, 59.58543879197532
1034, 77.0059913594514
1035, 73.765509041712
1036, 51.675402477254465
1037, 29.16591910520947
1038, 11.1535471103889
1039, 4.886885593542502
1040, 6.4637815233936635
1041, 12.55648555406242
1042, 11.435185430125784
1043, -0.24098484780552099
1044, -5.634847927346527
1045, -0.9021068435995403
1046, 15.686464930637158
1047, 31.10439240690721
1048, 16.42860870513141
1049, -8.828353473480092
1050, -23.013355696354665
1051, -26.561489820001043
1052, -20.219971225615154
1053, -13.360563215291222
1054, -10.22398696426444
1055, -20.78825033713474
1056, -36.839077171942336
1057, -34.89364439155452
1058, -22.802618653056925
1059, -10.312901875499847
1060, -7.852040005900562
1061, -19.647253279570577
1062, -23.300514765744083
1063, -15.503857783377498
1064, -9.67652954789446
1065, -0.8758861188607625
1066, 26.300453637820283
1067, 61.51421656385537
1068, 93.21413392172326
1069, 145.8193850629932
1070, 232.39032160895295
1071, 301.80614654861256
1072, 352.58550921044935
1073, 420.00889045307576
1074, 495.544159453505
1075, 552.5900386459152
1076, 588.879873024237
1077, 602.5731590344049
1078, 580.6504173742751
1079, 522.7460162429479
1080, 475.4584476129485
1081, 440.734664716063
1082, 388.4431978875764
1083, 318.50680356801604
1084, 235.4597329029466
1085, 141.38884867957404
1086, 53.84721417727815
1087, -3.5716882582182734
1088, -28.54325052030981
1089, -45.9705402831878
1090, -56.018076524544085
1091, -45.20809085606834
1092, -27.906488057199567
1093, -22.70314444338328
1094, -11.52222826538582
1095, 13.835688529472463
1096, 27.430600693224733
1097, 26.42698593226305
1098, 35.29374827557149
1099, 42.2186513345805
1100, 20.032266381256704
1101, -4.408947713754969
1102, -9.743379307492432
1103, -11.076440928496595
1104, -12.802982023493314
1105, -8.097978020608934
1106, 0.7759235927978807
1107, 4.606054026849051
1108, -0.644383688756534
1109, -18.382274695297383
1110, -26.757190911603175
1111, -16.857237698879544
1112, -4.822253053243912
1113, 6.075882118045229
1114, 14.767154157370896
1115, 15.928115763910682
1116, 2.967213634267864
1117, -0.14487190853014908
1118, 19.201648719807963
1119, 37.300238405058735
1120, 45.10154406204674
1121, 32.70115590336536
1122, 8.643906120557403
1123, -8.455671626456024
1124, -12.94222146035736
1125, -1.0710091322389417
1126, 12.273060054546477
1127, 23.35000247780954
1128, 34.417374490837574
1129, 48.614632278620775
1130, 66.41930025346937
1131, 80.84653629411241
1132, 86.37813424923934
1133, 93.12431160608321
1134, 104.01533371903133
1135, 115.00692010011608
1136, 127.65305296229872
1137, 146.76124298405102
1138, 155.20280279661347
1139, 138.9226171696091
1140, 130.228913968891
1141, 135.38291009518252
1142, 121.4783000147263
1143, 96.24966189934185
1144, 88.47846895408202
1145, 75.80275881121997
1146, 39.404377614966506
1147, 27.156248084052095
1148, 45.831555410378314
1149, 48.745627629028604
1150, 35.769331947987666
1151, 20.413432156722592
1152, 3.480765038790196
1153, -16.852168383314165
1154, -22.349314685977333
1155, -10.039299574966208
1156, 4.970120573164422
1157, 19.748173166015476
1158, 29.325267736944625
1159, 32.17280342533286
1160, 27.42526951880518
1161, 17.288910329690225
1162, 3.974362287834083
1163, -5.853309295058352
1164, -13.131217232674317
1165, -19.549293865235086
1166, -23.05465889066636
1167, -22.427615203717323
1168, -18.332108364883425
1169, -11.472093772570588
1170, -4.2030697402715305
1171, 2.5970290673849377
1172, 8.068266997899627
1173, 19.62807107104436
1174, 37.10694403476646
1175, 42.96556597820563
1176, 36.81993008146128
1177, 25.692362131650953
1178, 19.919406655140847
1179, 29.48769744980291
1180, 31.232261270841263
1181, 23.1464145271666
1182, 32.902375064275475
1183, 52.010556168783296
1184, 63.8135457964554
1185, 65.25273891335746
1186, 54.89680678622972
1187, 35.69795645720296
1188, 14.815577411804043
1189, 13.902761131446823
1190, 24.237850753932435
1191, 31.965819170713985
1192, 23.84669033825685
1193, -0.7029815473651979
1194, -13.888131551963852
1195, -16.125658421978187
1196, -14.495863655286485
1197, -10.562993038908644
1198, -5.429269633782496
1199, -2.814749467234833
1200, -2.069412754732184
1201, 1.924789925587902
1202, 8.971114335014136
1203, 18.440417279319263
1204, 28.495950343488403
1205, 37.107619488112505
1206, 49.70212160890969
1207, 63.76287619958839
1208, 72.76052536173665
1209, 70.57715082579034
1210, 55.84736803245596
1211, 52.256705785608574
1212, 58.93065147495054
1213, 56.526425391952216
1214, 44.80954236148136
1215, 24.956293814100718
1216, 1.528722357687002
1217, -20.948307429904162
1218, -18.131328298011795
1219, 1.6387349289043414
1220, 22.047241346192095
1221, 35.54195193520718
1222, 39.31720178075284
1223, 39.10007331567158
1224, 29.3180303061863
1225, -4.187836887510457
1226, -35.64510606703061
1227, -49.21477197395052
1228, -48.0935546927667
1229, -31.52744023469404
1230, 5.391108020629872
1231, 35.31498910468599
1232, 28.914652160534388
1233, 20.775708810754622
1234, 19.17856866085185
1235, 11.230930376664219
1236, 5.620996984578596
1237, 12.794569247341315
1238, 14.59668764073831
1239, 11.264144079349535
1240, 43.542876652033556
1241, 92.13552698647709
1242, 105.73216787153797
1243, 107.52275033708611
1244, 109.20401409344504
1245, 103.84153232710378
1246, 99.33261876121924
1247, 114.14202860291425
1248, 127.80003254216263
1249, 127.32407100323599
1250, 117.09644040339572
1251, 100.3866682522721
1252, 82.80533443804416
1253, 61.60461001461772
1254, 36.27229066832297
1255, 27.049018720056665
1256, 34.56166333661076
1257, 52.486635035046675
1258, 61.48052736615227
1259, 49.992139541840515
1260, 37.402498965353516
1261, 29.491573327209153
1262, 30.424079455565334
1263, 42.904943335129246
1264, 63.84088883973982
1265, 62.77411914327968
1266, 41.266512139356564
1267, 33.75079232528333
1268, 26.909875556564657
1269, 6.402410068720201
1270, -4.547892515458443
1271, -1.5923557926444118
1272, 10.184600074242553
1273, 23.480133665068934
1274, 28.68614149044788
1275, 21.899608851670564
1276, 9.43640050297472
1277, 17.32532538617761
1278, 35.704821402065136
1279, 48.85209023270818
1280, 42.03165832184641
1281, 19.95328059109488
1282, 12.352746764845506
1283, 15.864934923878536
1284, 21.76079776260758
1285, 19.46993798699259
1286, 7.83992883733481
1287, -6.526123089513021
1288, -10.898792748062988
1289, 4.257451975203367
1290, 17.26243790224453
1291, 20.16195252583566
1292, 9.354920408605722
1293, 0.7143557834688181
1294, 4.317388064338957
1295, 12.235520494658886
1296, 24.38587947630822
1297, 41.96817158590238
1298, 49.61800884015338
1299, 40.47813143300573
1300, 40.547866802581666
1301, 43.23512945648872
1302, 25.023408969102093
1303, 5.970088595446214
1304, -3.0388179782703446
1305, -11.154450599718984
1306, -13.104971442076021
1307, 2.345530858519851
1308, 10.217195520610403
1309, 1.8510419256735986
1310, -5.114087346818451
1311, -13.788658837126604
1312, -29.46371173395619
1313, -26.725976123262626
1314, -5.595878919846655
1315, 0.7612806189126786
1316, 4.873283047738369
1317, 19.91709585567969
1318, 24.631547360167133
1319, 20.40790191391625
1320, 25.8193348888708
1321, 17.81825580290024
1322, -14.151702623774327
1323, -24.239533829857464
1324, -13.36900355875241
1325, 1.4583295765978619
1326, 16.96115412240124
1327, 29.1360813108422
1328, 29.86325450660206
1329, 20.806936687540656
1330, 6.292270471984921
1331, -2.830847453287788
1332, -3.6939770334365676
1333, 4.084692862618795
1334, 21.528629827112127
1335, 45.180711285590405
1336, 45.72277850127102
1337, 24.714470304411407
1338, 1.5346492551616393
1339, -8.564485075909033
1340, -1.2607896008066746
1341, 8.580798469730325
1342, 13.678187518109553
1343, 7.370002760903844
1344, 0.9005906714046432
1345, -1.44824773030723
1346, 0.21238093780175404
1347, -0.9964978927500852
1348, -9.22046509748725
1349, -8.369114979368533
1350, 0.41512272297768504
1351, 7.955365526868263
1352, 24.300678150812928
1353, 46.186284463563425
1354, 39.75489000622747
1355, 26.223622081012763
1356, 33.08065176729724
1357, 24.21062390400857
1358, 5.3945879547609366
1359, 20.69122404236259
1360, 28.689475427019715
1361, 8.646994112739776
1362, 4.874823650431608
1363, 10.55315293538115
1364, 7.819190571553008
1365, 26.025471461292
1366, 58.374860126054955
1367, 52.36731378886361
1368, 32.54507811847452
1369, 18.424080981296356
1370, -2.6686083605818567
1371, -19.785917443045037
1372, -9.186825034620597
1373, 8.815578402563006
1374, 27.792976743530744
1375, 48.43971852449067
1376, 56.86131841901897
1377, 45.63420641899302
1378, 44.12438552477943
1379, 53.539171063064714
1380, 64.6700794953631
1381, 52.82539255823667
1382, 19.823814984260025
1383, 7.005636589280584
1384, 9.5272334031215
1385, 21.195975978615024
1386, 33.504310816107136
1387, 34.49589939455109
1388, 9.553195519297333
1389, 2.245009392108841
1390, 16.268402496721137
1391, 16.423572150844848
1392, 16.8998306056601
1393, 26.8487770280326
1394, 31.577265638962672
1395, 26.375146755820424
1396, 9.122310440957335
1397, -5.057432515841356
1398, -12.825249420871842
1399, -14.217343870309378
1400, -7.6631424324104955
1401, 2.6835743361680215
1402, -8.678003139263637
1403, -16.2056144764083
1404, 7.619904573580243
1405, 32.65674704667799
1406, 48.25080601535956
1407, 49.983353466086555
1408, 25.875082379761807
1409, -12.153609944196432
1410, -8.965623992914516
1411, 14.225901815232646
1412, 36.627337302716114
1413, 33.43167192802957
1414, 14.870665235113847
1415, -0.20054114777485665
1416, -9.350376504060478
1417, -12.738501998648644
1418, -10.821677600796647
1419, -12.401068119190313
1420, -16.243012122925393
1421, -1.639059955634366
1422, 14.411550073017679
1423, 15.758037026704187
1424, 2.5756303877196842
1425, -8.818504840401147
1426, 0.6748978542655095
1427, 12.67120442182113
1428, 19.896058157771222
1429, 18.508762441145336
1430, -4.499150205781916
1431, -38.70353372507816
1432, -29.988963989200784
1433, -6.979008692868774
1434, 6.862880421853333
1435, 7.583329549470363
1436, 5.240195541804496
1437, 13.221432279943656
1438, 41.859006287671036
1439, 72.96239522888754
1440, 73.03391182967425
1441, 61.96512898101446
1442, 49.613847059843465
1443, 41.89353462283816
1444, 33.80676052875242
1445, 31.874925048650766
1446, 60.034308327804865
1447, 87.38729843830606
1448, 92.2306244110996
1449, 92.25925633762836
1450, 70.96957254017343
1451, 14.104225500100256
1452, 15.824644815742431
1453, 47.385890712924265
1454, 19.306596093138978
1455, 10.25807275819625
1456, 26.39051342901439
1457, 16.064361844732957
1458, 18.722481152383807
1459, 38.22692926392028
1460, 16.963523993362287
1461, -5.984992598949248
1462, -2.8182859304542944
1463, 33.819698950229395
1464, 78.16827409379675
1465, 98.69109163251778
1466, 99.05955823921522
1467, 88.92482946725431
1468, 82.04359421136542
1469, 98.1670566145649
1470, 119.6022965385564
1471, 108.62239065060294
1472, 91.6596586608157
1473, 77.35282677696341
1474, 64.66559058863368
1475, 51.002552555397415
1476, 34.67329319482178
1477, 17.83159451620395
1478, 17.30262859125378
1479, 36.11965495541244
1480, 46.51513575864283
1481, 42.88476951716075
1482, 27.767359064751872
1483, 23.099331752498983
1484, 13.240979014230106
1485, -11.094588823464619
1486, -21.24386645022696
1487, -24.634700662671094
1488, -29.43928034597866
1489, -2.152219766003327
1490, 31.744907346793298
1491, 29.441232474175195
1492, 25.533492732684863
1493, 18.6836651675103
1494, -3.960202741543071
1495, -9.320778530957796
1496, -3.5560316301580315
1497, -13.01631147163971
1498, -11.640206810774544
1499, 7.70582534066034
1500, 39.95000180262923
1501, 45.41268329297327
1502, 20.806411300576656
1503, -4.67270326729431
1504, -16.09615240290168
1505, -9.274414401722424
1506, 13.066395738770552
1507, 12.050358590739052
1508, -10.689583115441565
1509, 6.637575020207805
1510, 32.61301600185743
1511, 44.707885179738696
1512, 37.081249921375274
1513, 19.663628367358797
1514, 3.1845599749967732
1515, 4.5544851007880425
1516, 4.262954297754732
1517, -6.314788701527505
1518, -10.865593140793862
1519, -4.007497820612116
1520, 13.797468238851252
1521, 27.33176048736732
1522, 20.914533276474685
1523, -5.73266414139016
1524, -14.54421177531367
1525, -9.604788121450838
1526, -0.04887344966755336
1527, -3.4905732347469893
1528, -6.018892329891969
1529, 4.1681858010215365
1530, 29.831607039462142
1531, 50.15653980021398
1532, 48.49804603536177
1533, 16.556033637180008
1534, -6.530190974293873
1535, -0.6767208584569744
1536, 5.118044156378346
1537, 13.684651027865584
1538, 23.251388417088492
1539, 14.483161497698347
1540, 7.930998777254899
1541, 11.557466507365461
1542, -2.842653910097397
1543, -10.843620415254009
1544, -2.3158396407579858
1545, 3.57672582809937
1546, 13.21731924476262
1547, 22.367661627105917
1548, 5.261349348972544
1549, -10.031905265933347
1550, -7.83837789151039
1551, 16.347081229064315
1552, 29.412155786941184
1553, 24.82416583075792
1554, 27.63336766876637
1555, 25.521054916920548
1556, 15.424806145693765
1557, 3.374826211418622
1558, -17.4331067661642
1559, -33.10569212097653
1560, -9.731832113739074
1561, 7.933293607533415
1562, 6.1958767360711136
1563, -10.686433025865881
1564, -23.04032184407606
1565, -24.901870229590713
1566, -16.66844962900177
1567, -16.60300334542444
1568, -16.612800747890105
1569, -1.8417956845751178
1570, 22.349910829443616
1571, 57.51525268660407
1572, 107.40593339565567
1573, 175.77268097015985
1574, 248.11003587350933
1575, 315.602670770998
1576, 352.71458234771126
1577, 376.4869740218446
1578, 400.38304959610923
1579, 425.2265348062356
1580, 424.7985966088754
1581, 382.3968320352851
1582, 291.4376071328097
1583, 193.82581673427012
1584, 114.45496443323009
1585, 78.85823368431738
1586, 51.48975123283162
1587, 17.62394171228152
1588, -24.813972677105085
1589, -42.070028219404776
1590, -34.16604162172189
1591, -13.443065861360992
1592, -4.098717184969246
1593, -6.870056451520213
1594, -15.61968648538732
1595, -13.968511193959785
1596, -7.88523227846963
1597, -5.508162500501385
1598, -16.79906401808239
1599, -8.67381587408272
1600, 19.598066957509218
1601, 31.433322920503088
1602, 35.046676332908646
1603, 29.129290352962016
1604, 8.769406027293371
1605, -1.7158048064347895
1606, 5.208398562666844
1607, 26.598676192611492
1608, 21.68870090094788
1609, 16.828231871478238
1610, 27.586929264636638
1611, 19.670281200365025
1612, 12.712731311485186
1613, 8.683680060949882
1614, -13.99086966924824
1615, -16.280188434193406
1616, -1.0214988506249938
1617, 4.7047543357221
1618, 10.838449188341656
1619, 18.91645506374607
1620, 26.003440339223744
1621, 18.53942933397957
1622, 9.674388040321901
1623, 11.779819854332345
1624, 27.948084194753392
1625, 41.359940488738175
1626, 40.40603463251591
1627, 17.746699861742854
1628, -0.5678192262621451
1629, -7.111356515354601
1630, -5.248079944450183
1631, -12.200216065667519
1632, -8.382783773188748
1633, 13.919420811927012
1634, 18.498719538837577
1635, 19.593445066500863
1636, 18.182583419417824
1637, 0.9747829638099574
1638, -4.273505908986408
1639, -7.186351477759672
1640, -23.019274442385722
1641, -11.982002961648504
1642, 9.116123265753231
1643, 24.553244970918968
1644, 33.227780191336024
1645, 28.255224537292634
1646, 14.530394426600651
1647, 6.588373030028379
1648, 1.3172896362939355
1649, -11.24916403286079
1650, -36.63858705392795
##END=



