##NAMES=
##LOCALITY=
##RRUFFID=
##CHEMISTRY=
320, -8.973609770180701
321, 4.93865652414388
322, 15.840938751613066
323, 16.72076177893723
324, 11.89964997439347
325, 10.154213805124527
326, 12.97983140530414
327, 26.550862055464677
328, 50.97806196091187
329, 65.87532079768425
330, 67.10314143535834
331, 70.11718065853347
332, 83.39837544436887
333, 96.82617273740107
334, 97.59272550057904
335, 91.27906711070864
336, 93.38333613183022
337, 101.83200656697227
338, 98.2318061184742
339, 80.68714113080932
340, 73.35025907150884
341, 92.72087830885903
342, 110.14629389289985
343, 108.08782932515533
344, 95.44704605639527
345, 88.70582739445308
346, 86.7680100502912
347, 83.91519925416833
348, 79.80016564255129
349, 76.58897378159054
350, 74.75769976235824
351, 72.1253066808913
352, 67.56801488778365
353, 58.08889037708832
354, 40.294795869536756
355, 20.36476711908108
356, 15.166386293325559
357, 21.264518547910484
358, 19.142272077631787
359, 7.534582440544909
360, 3.2016481825558003
361, 10.434936463761915
362, 15.11755193873978
363, 6.882145994391976
364, 0.26786313576485554
365, 13.574554669392455
366, 34.313907933559676
367, 27.364662012359986
368, -3.7093629000646615
369, -26.14951538761852
370, -36.31302473624237
371, -27.48409308157352
372, 3.718752566503099
373, 40.82727642824102
374, 69.96028708798622
375, 81.86504119979145
376, 62.93498902047031
377, 24.260263171907354
378, 1.077629273666389
379, -6.619461959458931
380, 1.5790068582118693
381, 25.197017468823105
382, 40.52676377577882
383, 39.51878110530197
384, 29.52970613051366
385, 15.540666528131624
386, -0.3169434860574256
387, -15.063793795357924
388, -28.841062319328557
389, -39.40605567144121
390, -46.44073623638724
391, -44.20577366145699
392, -32.377919680600826
393, -21.492334848335304
394, -14.107067485381776
395, -9.729915784990226
396, -8.070532493851715
397, -10.733428472001833
398, -20.127740870017078
399, -32.15329300281519
400, -36.20984713499456
401, -31.719950241038532
402, -15.998321072094768
403, 10.70146311624194
404, 30.747916544178224
405, 38.0708967616647
406, 35.8649998477631
407, 25.647312020084428
408, 14.07395165195885
409, 8.612633608041506
410, 11.013969831505165
411, 25.61671616267995
412, 49.82768201512954
413, 72.39812431924838
414, 96.86100879237893
415, 140.8394705798528
416, 196.32938151055896
417, 247.5960572343629
418, 289.2433019926211
419, 317.3437624137332
420, 329.4555861963254
421, 329.54318181759845
422, 322.37255803488733
423, 313.7634151082457
424, 316.62150482702054
425, 324.6711427764476
426, 310.68256640063555
427, 273.8045661246779
428, 230.0834038468838
429, 183.00171698054692
430, 133.11403054704897
431, 80.71954226570779
432, 44.87252252945109
433, 29.699264157210564
434, 24.035444109600576
435, 14.496201530124381
436, 3.418709575133107
437, -2.338924546727867
438, -3.667739163040096
439, -3.4610877675168013
440, -2.2432366034790903
441, -1.8108801926246088
442, -2.356091248057055
443, -0.2735734009893349
444, 6.15227998510818
445, 27.050194755300254
446, 70.9463436435326
447, 115.62136777649357
448, 136.74245288211205
449, 139.11262049916877
450, 133.3818013845048
451, 122.43690391503878
452, 115.73169396802223
453, 114.26924335684271
454, 118.71525911128447
455, 127.88202502319655
456, 122.48144037929524
457, 96.44021172239081
458, 65.81587878858772
459, 39.61870909171557
460, 21.538787356033936
461, 9.500671749192406
462, 0.6483114145230502
463, -8.754498173946558
464, -17.390088453033968
465, -19.454051302893276
466, -16.41230339998583
467, -16.21850319173609
468, -19.51054967562959
469, -22.46565797479161
470, -24.167147059903073
471, -20.278117254678364
472, -8.686295445520955
473, 3.047081114995308
474, 10.308692200207588
475, 8.395189125227262
476, -7.740637282910029
477, -27.990158323638752
478, -33.494471300769874
479, -26.433754692548973
480, -12.77622979953594
481, 6.530405369698201
482, 23.89688375093283
483, 36.52333198477572
484, 37.05204339983902
485, 24.608254417253193
486, 18.35444455961442
487, 27.586741182743935
488, 38.85827315404458
489, 44.78725680338721
490, 45.95525596010884
491, 42.978573477303144
492, 35.71399561014914
493, 23.912792832090418
494, 10.30900797387767
495, 3.4358914309541433
496, 1.021708212527301
497, -5.949386480995599
498, -18.32505864524319
499, -30.97169509639025
500, -43.38206213000922
501, -49.884106529543715
502, -48.700428525064126
503, -31.92353271724278
504, 5.920948431821671
505, 48.050598612282556
506, 77.86480468442096
507, 96.09931804652297
508, 103.68379827648641
509, 100.66186367046794
510, 87.11324916306876
511, 71.36691233591591
512, 85.56440463544641
513, 127.50104463021307
514, 163.97544118279257
515, 192.35741017316286
516, 216.19090542300182
517, 235.37324090561742
518, 238.5409979751621
519, 222.59358875434918
520, 203.2857242267146
521, 188.02514329984479
522, 163.23397766914968
523, 119.16177756291472
524, 70.67707179206445
525, 41.530568339796446
526, 26.621042518363538
527, 20.695741097573773
528, 21.85400004569601
529, 27.07281564099867
530, 36.10341709138447
531, 43.938219073952496
532, 48.58583599400117
533, 40.03645511830655
534, 19.54174112992405
535, 14.55443424774603
536, 28.77824623818742
537, 29.96269986797597
538, 8.304308645920173
539, 1.9418457269275677
540, 28.9913537162156
541, 62.179625873382975
542, 76.46203887386582
543, 82.15126112037797
544, 90.67804320474534
545, 98.06986074362612
546, 97.85780040978716
547, 94.10138506418843
548, 96.42324045929854
549, 104.71979155807458
550, 117.37040695743235
551, 131.2463972597434
552, 132.17320247911084
553, 120.47113233757955
554, 111.14359024375517
555, 106.43753576778545
556, 99.14968777901959
557, 87.13704068378865
558, 67.48522559708181
559, 39.39008188258413
560, 21.22812278575111
561, 18.881978090548728
562, 18.98961405501177
563, 9.789506974786491
564, -0.5646708019958169
565, -5.371511702756834
566, -9.807592730450779
567, -21.455450873727386
568, -32.83879365271787
569, -26.916737889878277
570, -8.963707254171823
571, 4.573625287381219
572, 12.173424269354655
573, 8.783938890877835
574, -3.3894397224848944
575, -10.218998015940087
576, -11.238797766282005
577, -14.06809890475779
578, -19.540794409953378
579, -16.645059890879566
580, -2.514146824290947
581, 11.261608925562541
582, 21.305483458923845
583, 32.40320977978263
584, 47.440187485683055
585, 58.312792204655125
586, 59.618534069850284
587, 49.8772243335643
588, 27.760475452960236
589, 2.1355154565826524
590, -15.949285340224378
591, -24.241114400454535
592, -17.025641920716225
593, 0.6078991618705913
594, 17.946332321636874
595, 32.54146625017529
596, 38.966486035338676
597, 37.4097882752103
598, 29.63251527702232
599, 18.053935272935632
600, 13.109409957392927
601, 15.53674743279771
602, 12.614989790501568
603, 3.0388764738181635
604, -7.759970458640964
605, -18.723249934451815
606, -19.388490194160113
607, -7.760721926939368
608, -3.7710070977918804
609, -13.847445432757013
610, -17.015319666919822
611, -4.050894220566988
612, 2.698478025118675
613, -9.703076729752866
614, -22.53390087700427
615, -22.966737663653475
616, -21.658828848989288
617, -28.138373550575125
618, -33.426867118585506
619, -26.85763304135071
620, -11.351728550487678
621, 9.401721318850832
622, 31.139592311534216
623, 41.57259093984612
624, 45.497778364571786
625, 54.00827524102351
626, 60.5630065235855
627, 46.51764722948246
628, 20.663177503032784
629, 17.1123564906884
630, 34.70985343521352
631, 62.19168727104989
632, 98.60550763587707
633, 126.33628600514749
634, 144.6729825033217
635, 158.35102366625506
636, 168.7998944207593
637, 180.79390380897712
638, 193.70429041378884
639, 192.74472470875844
640, 175.09422849383373
641, 150.07130893823705
642, 121.41826653351018
643, 105.3222443479317
644, 117.25201854479747
645, 133.26573240223115
646, 147.34679040111405
647, 140.8498966510797
648, 105.5296663599438
649, 67.8911799298694
650, 42.428551787579636
651, 25.580668627253544
652, 10.697822368614652
653, 3.5166169325457304
654, 8.700982217251294
655, 17.88034080097168
656, 24.231436059624684
657, 29.9253140402634
658, 38.99616180366684
659, 39.032150557140994
660, 15.32802977827123
661, -12.523670314358242
662, -19.04495679669344
663, -16.386015684967788
664, -22.378365629232576
665, -27.238445333958225
666, -12.828035571539658
667, 5.729687385917714
668, -3.744658446888934
669, -25.940224513535213
670, -26.35648165317616
671, -14.248037805031345
672, -14.412314695606256
673, -20.171929950618505
674, -10.473836825214676
675, 12.214544310707424
676, 36.00227697430091
677, 60.88681934064152
678, 78.5571635988581
679, 90.28878027028986
680, 102.15735615985614
681, 112.88117854865595
682, 115.02863077107031
683, 110.95869866171415
684, 114.51815651010656
685, 123.7144539093224
686, 121.08945555946411
687, 106.37988995510023
688, 90.21286969058929
689, 74.5415128101231
690, 61.73752129078093
691, 50.513170040007026
692, 30.626328103799096
693, 6.324667912485893
694, -5.265833323066545
695, -3.5659572608419694
696, -1.7753287258274213
697, -1.8573244923099992
698, -0.007531557195761707
699, 3.4109639264170255
700, -2.388593456018498
701, -17.775699189633087
702, -20.65687825902205
703, -8.358022346066718
704, -3.7060713743412634
705, -10.094102057115379
706, -7.882037920162475
707, 7.2961267487444275
708, 26.000193186557226
709, 47.74823252524038
710, 80.86860560139394
711, 120.52865805517285
712, 146.74793065178346
713, 155.46181013441492
714, 165.62920836694138
715, 182.2062057892872
716, 198.43231934316464
717, 212.28746460392904
718, 223.58435407345678
719, 232.7891211742044
720, 246.61809103526502
721, 265.6916701654027
722, 271.3616134802887
723, 258.9284336335131
724, 242.12618823027333
725, 225.32894064052562
726, 210.15213612239495
727, 197.86925430307565
728, 198.5790709429475
729, 212.57171936493796
730, 203.37806804907814
731, 161.98726977383922
732, 115.73877991504924
733, 72.61582178472963
734, 36.261805732583525
735, 3.6674263546556176
736, -8.049910020978132
737, 2.675747427285387
738, -0.22426734358305112
739, -24.05318569413612
740, -31.48277998609592
741, -15.48039810469163
742, -8.6742821206808
743, -16.98138435301007
744, -15.182548178709112
745, 0.2952937898953678
746, -0.8331221297939919
747, -21.299608877774517
748, -15.82266953447288
749, 22.72091084371459
750, 59.09111792540716
751, 83.02088603735683
752, 100.99425411499942
753, 113.10783846467166
754, 109.94318023259984
755, 91.32542414429008
756, 68.92678368826819
757, 45.34689748578603
758, 23.142846449638455
759, 5.220979277948572
760, -9.375470168253742
761, -19.436619124862773
762, -12.356159148601364
763, 7.347940351397483
764, 5.87304627082267
765, -13.669406108056137
766, -16.58719991837461
767, -4.592621535417493
768, -0.9022565179893718
769, -1.6208635069360753
770, 16.59551382637983
771, 44.60187579498961
772, 42.56686981384519
773, 17.614561076026803
774, 2.5068163061896485
775, -3.4277931434753555
776, -10.095380325627048
777, -14.448862803452357
778, -5.985482560408855
779, 7.717838855132868
780, 6.646497770498172
781, -3.3199958268451155
782, -8.734134359594464
783, -10.522366912979123
784, -10.329899870768713
785, -1.077040283340466
786, 29.692236470969874
787, 57.888007532712436
788, 48.646986277670294
789, 25.065021004096707
790, 16.348615654185778
791, 13.972655139219569
792, 6.626512923585324
793, 10.84733240854257
794, 42.940812777149404
795, 69.23202803241657
796, 64.05058529755843
797, 49.08441697089256
798, 39.18176590123585
799, 41.81347507864666
800, 59.165477091702996
801, 81.17083752908184
802, 104.22808145664567
803, 112.53820730227744
804, 99.90028446977885
805, 77.49923996713187
806, 50.04544573460589
807, 25.333902627022326
808, 8.879486651652769
809, 4.58071522568207
810, 11.199346161040012
811, 10.729345358635328
812, 1.5929080849382444
813, 0.0008651042371639051
814, 7.845062749576755
815, 20.160778767300144
816, 32.42047178670873
817, 31.946094954135333
818, 19.537206273267657
819, 3.4494792332370707
820, -11.451907611266506
821, -15.422728355650179
822, -10.84663789825936
823, -3.9691861402407085
824, 3.4487218645208486
825, 7.82993759983583
826, 8.69628737277344
827, 6.030997531919638
828, 7.633399265429034
829, 23.213815532577428
830, 36.085734561260324
831, 29.46747499825142
832, 15.689325478388128
833, 4.907278379871059
834, -5.075422885152875
835, -16.754360389328212
836, -20.486322756938534
837, -11.607237615438862
838, -3.4878489566253847
839, -0.9225092311153276
840, 1.5861530016209144
841, 5.881254951889787
842, 10.839555270449637
843, 15.97122401780689
844, 25.041300599712486
845, 35.20623460114075
846, 26.33205480111792
847, 1.418493042991031
848, -13.350339277505554
849, -18.80935376090747
850, -23.093482608564955
851, -23.782849086957867
852, -12.13593573792059
853, 1.9500928024426685
854, -2.9100463329941704
855, -14.01274230974741
856, -11.471580633200574
857, -1.954304745842819
858, 7.326918709146412
859, 25.37825177206105
860, 60.49212224971416
861, 83.18100432968276
862, 77.3357505111162
863, 72.3109909556606
864, 80.29187675203502
865, 69.34858479027207
866, 32.104394584866895
867, 16.83159691711262
868, 30.25067098299951
869, 44.57867699779672
870, 52.881907159689945
871, 65.06319859326322
872, 76.95516915601002
873, 67.5748665020983
874, 44.636697631751304
875, 35.155966928086855
876, 31.850258025293442
877, 16.49945689359629
878, -0.8144703136586031
879, -8.315817381664601
880, -9.373607788937079
881, -7.046778963127508
882, -0.6439716462300566
883, 10.543066187232398
884, 13.843570036471647
885, 3.5353671652192133
886, 3.9055645933876804
887, 21.797596253558368
888, 27.085292135836426
889, 13.796008772853384
890, -0.3304442577100417
891, -10.622007497157028
892, -12.369973021171973
893, -6.129304450692871
894, 4.771085871399919
895, 17.613424019242302
896, 23.4449180821357
897, 20.708958052977323
898, 7.381253922199903
899, -4.309458866217028
900, -1.8322653439718124
901, -3.1345859578232194
902, -22.191284054262724
903, -25.324748134944457
904, 4.621822159906515
905, 29.05042640164538
906, 33.8733617673588
907, 43.836638537475665
908, 60.01186118281839
909, 47.02779519596152
910, 11.940608230246653
911, 12.411009240364365
912, 40.7092224074695
913, 55.07356544861068
914, 57.106735174511414
915, 54.930394356855686
916, 42.384066906053704
917, 11.068643877300929
918, -11.693051489393838
919, -6.108077281984151
920, 8.457543828786584
921, 22.041672717919937
922, 33.21057098262281
923, 39.32959093520003
924, 46.609379128494766
925, 57.454242786472605
926, 76.7062973694974
927, 98.5088158616636
928, 97.92605442571585
929, 78.02589999108568
930, 52.31259714734915
931, 29.133406545934122
932, 24.010326307747164
933, 27.48940669753938
934, 27.67424174032203
935, 23.40505564317209
936, 14.31950091597355
937, 11.26262102867804
938, 17.084698291328095
939, 21.425656694301324
940, 21.37828659318984
941, 14.68869838437331
942, 2.5470926065099775
943, -8.767775213062123
944, -14.020454930256165
945, 0.3843054682629372
946, 21.572855605836594
947, 26.16830558831589
948, 22.17182420592235
949, 17.444975814873942
950, 10.940946165388596
951, 3.719154344128583
952, 5.454379085829714
953, 18.87549003753429
954, 34.100194751456
955, 46.74584410548414
956, 57.29680291494242
957, 64.65467041133707
958, 65.30215506627792
959, 59.18918920197666
960, 46.67368316902957
961, 26.304463133624267
962, -3.4274030277038037
963, -26.13021319904965
964, -32.81222055996295
965, -23.17739493159388
966, 1.1494309312984115
967, 13.740303217622568
968, 11.28133693671225
969, 14.935233530797632
970, 21.374414634567074
971, 10.824211938660483
972, -5.1366283994793775
973, -2.5756576624680747
974, 0.2562974621605463
975, -17.02643149299729
976, -19.687662015526257
977, 12.456656999371262
978, 31.296943147607635
979, 21.876894932627692
980, 17.792035296773065
981, 21.069819027517042
982, 6.990277144771426
983, -15.057939075170907
984, -16.47913529258949
985, -7.176115962794938
986, -3.8970633220906166
987, 4.229103846772887
988, 26.560745157951715
989, 36.41868226175302
990, 22.030832275728244
991, -1.952893132319332
992, -27.478036706130297
993, -33.940655949777465
994, -19.140690966740294
995, 15.62977874225271
996, 60.63042203840814
997, 90.08027927072544
998, 96.31152346950512
999, 72.51295647443021
1000, 47.09441747958499
1001, 36.281768831332556
1002, 45.86663520482671
1003, 67.73614528157032
1004, 68.78203997805576
1005, 47.89408750214443
1006, 21.412592077942463
1007, 0.5960332536023998
1008, -1.6278926866680195
1009, 5.49097845520555
1010, 12.662882917684328
1011, 15.885429408785058
1012, 11.697402820743264
1013, 7.446888148434482
1014, 6.775470954986304
1015, 22.406746765941534
1016, 50.13972325065879
1017, 62.553700377487075
1018, 65.8555371789198
1019, 74.25274546133096
1020, 80.6668801375863
1021, 78.63266834808655
1022, 77.39442415339272
1023, 79.33446681770693
1024, 62.29172291890791
1025, 26.530066223758695
1026, 4.597802806672917
1027, -4.973996160010756
1028, -11.539800786180422
1029, -6.944393382618728
1030, 21.824022695181156
1031, 50.17184470907705
1032, 57.52153678325976
1033, 57.35526593555642
1034, 53.2973817453485
1035, 35.85502506452849
1036, 10.853877866533367
1037, 5.81874119416716
1038, 16.438528062547448
1039, 32.71955203174457
1040, 40.85065418388331
1041, 30.53839749380495
1042, 20.24299060467547
1043, 17.550833694832363
1044, 12.99902952872344
1045, 4.395619751326194
1046, -7.3860422697789545
1047, -20.14967961660659
1048, -27.91755200760508
1049, -26.79051508957673
1050, -12.193709708514689
1051, 0.011350009566740482
1052, 1.2153871717900984
1053, -14.348168416550834
1054, -41.6137109439951
1055, -44.37425310960771
1056, -28.68675331702798
1057, -18.516693668775588
1058, -10.884709534854665
1059, -1.7760033424419817
1060, -7.334985189662802
1061, -33.82329682071031
1062, -39.83344320732158
1063, -19.018254380932376
1064, 4.586296148560905
1065, 33.53513569947063
1066, 79.10196697705396
1067, 137.37366402656517
1068, 204.29467599444342
1069, 273.6941266447948
1070, 347.871771485894
1071, 408.8032837251658
1072, 454.5842362305093
1073, 497.5322398567305
1074, 538.7407297470309
1075, 577.5070743332535
1076, 601.1353137550732
1077, 597.0750496681512
1078, 564.4402119601655
1079, 505.27331564722954
1080, 439.7639316512914
1081, 368.00678256722676
1082, 274.2579098834676
1083, 173.00069836228795
1084, 108.9068992720795
1085, 61.58132426186239
1086, 16.38770656397719
1087, -8.245614058739193
1088, -11.978500688523127
1089, -28.673341865516704
1090, -51.909375941802864
1091, -46.78876006102382
1092, -30.224452928230676
1093, -25.22731100936926
1094, -24.408464240491412
1095, -23.83049863825454
1096, -23.928084277913513
1097, -21.00568132339049
1098, 0.867970603950198
1099, 33.74063740724341
1100, 55.212011551181604
1101, 61.573421714689175
1102, 50.53435145231015
1103, 28.06261397066919
1104, -0.11173382779725216
1105, -13.303049594578624
1106, -15.324894514650623
1107, -21.701918006816413
1108, -23.480352481041336
1109, -9.340266954630351
1110, 0.8696288791506959
1111, -0.8062162660889953
1112, -0.721273456741983
1113, 1.8512541395484732
1114, -0.8776504600964472
1115, -3.764595796760659
1116, 2.007826333732737
1117, 7.95354768103698
1118, 7.725733771237174
1119, -2.698853571580912
1120, -19.204274307193373
1121, -20.40239535935143
1122, -8.10306891871096
1123, 11.101733717669958
1124, 28.88966860406981
1125, 36.55994107774859
1126, 34.812954567288216
1127, 27.919656738176855
1128, 38.35190661095203
1129, 57.23225653071495
1130, 66.3661332560232
1131, 68.13531752010476
1132, 65.15095735809246
1133, 58.77530965990809
1134, 51.87889251398792
1135, 62.34326306640651
1136, 78.45728032258376
1137, 81.43084588733745
1138, 87.61490034346207
1139, 110.76958341234513
1140, 117.44150002553306
1141, 97.64382501199725
1142, 66.19338320810402
1143, 33.05332538277344
1144, 18.941123701843026
1145, 17.880319614850123
1146, 24.538818604223707
1147, 28.261495061419737
1148, 24.789882389793092
1149, 9.030091836861175
1150, -5.136363440436071
1151, 10.317327052969631
1152, 26.439634320545338
1153, 17.0502290657696
1154, 3.805894244346746
1155, -5.814126816581847
1156, -14.36229839895168
1157, -13.722305415005394
1158, 13.667139261781813
1159, 33.890824552499
1160, 22.529814547840033
1161, 3.201983868728348
1162, -14.13654957842482
1163, -20.772207108972907
1164, -18.836058809925817
1165, -12.447957281699928
1166, -10.486224781159763
1167, -17.207768928698897
1168, -21.20968632853146
1169, -19.385530493798797
1170, -9.700298310184735
1171, -0.09062528803133318
1172, -0.9393380513956799
1173, -4.620113475324615
1174, -5.683907670501867
1175, 9.825145713533857
1176, 32.627420500801236
1177, 28.580943923863742
1178, 14.599666396977227
1179, 9.598585518910113
1180, 18.765099216087947
1181, 44.24968121236907
1182, 84.99823001253571
1183, 122.28260554972167
1184, 131.57762881360577
1185, 120.19042985285614
1186, 95.70773274105522
1187, 82.51481440645694
1188, 82.11016110629043
1189, 80.48085444945082
1190, 78.4638769176945
1191, 77.6267590555226
1192, 63.125472496692964
1193, 32.1117041442094
1194, 6.968990502663473
1195, -10.949698003298181
1196, -21.50405096041868
1197, -18.80694385341849
1198, -0.7533688628964228
1199, 1.9402295909767417
1200, -11.761912871548702
1201, -18.729242673106455
1202, -19.13446945344549
1203, -14.218702810963805
1204, 9.62062975059689
1205, 51.94071877474471
1206, 66.1415396289849
1207, 55.01058844905583
1208, 37.275283080075496
1209, 17.194976809359105
1210, 0.12499299844876077
1211, -5.3399204639090385
1212, 2.479752597542756
1213, 23.60717737124105
1214, 39.108816905137246
1215, 31.302684487191073
1216, 27.52094390230559
1217, 30.64456710336981
1218, 10.441403596656528
1219, -9.17396693475257
1220, 9.400127267706011
1221, 20.357930644293447
1222, 5.122607493601208
1223, 10.039251245299056
1224, 19.433572419716256
1225, -17.035819414546495
1226, -44.71588260005865
1227, -29.689991062737136
1228, -19.582286937386016
1229, -18.753512637864333
1230, -6.59049838847659
1231, 4.494381595524828
1232, 2.3140785417490406
1233, 10.548932991572656
1234, 32.678838116147745
1235, 46.84496702695105
1236, 48.88270678668778
1237, 36.985788957538716
1238, 34.866030192434664
1239, 51.71948337362937
1240, 61.53030198658598
1241, 66.7297216908546
1242, 76.31954054637663
1243, 76.37061722549515
1244, 62.97377959421556
1245, 59.020901095310364
1246, 57.63748687212319
1247, 36.83061861962506
1248, 32.583061206785715
1249, 60.06657410565549
1250, 71.74209637167132
1251, 65.7562650278769
1252, 60.40166253415464
1253, 48.49409521436428
1254, 28.108460841015585
1255, 41.067349384817135
1256, 81.50813466995533
1257, 99.17945940351001
1258, 102.31933721190762
1259, 99.32712353863826
1260, 79.70822737015351
1261, 47.19686210015698
1262, 21.86680071196679
1263, 7.346236045509613
1264, 2.274254832441329
1265, 6.446647184982794
1266, 21.726430761784286
1267, 54.00463459074217
1268, 71.14950122761184
1269, 45.46256647536666
1270, 14.171215004974329
1271, -7.816548915556268
1272, -16.556511017258345
1273, -4.1480582840822535
1274, 35.04746738749509
1275, 45.15439215817969
1276, 21.993509547906797
1277, 10.762252701955731
1278, 15.077574998646014
1279, 33.58733343253607
1280, 55.58250462676369
1281, 68.12141342538507
1282, 38.76115444682364
1283, 1.7848304329118037
1284, -8.30675516024985
1285, -6.256841642933068
1286, 0.497487174091475
1287, 1.7139967509820053
1288, 2.643349900920839
1289, 9.218455813575929
1290, 28.907425365050585
1291, 51.430953206830964
1292, 46.432147813268784
1293, 30.428379675479846
1294, 18.336747524335806
1295, 17.423506606395676
1296, 26.013336821290068
1297, 35.405984405206254
1298, 32.47758796083326
1299, 14.48658246598552
1300, 25.77765702112265
1301, 52.397334589819366
1302, 51.77650459722645
1303, 32.80676990168104
1304, 3.6982534973740258
1305, -20.713449302948902
1306, -29.508755048117564
1307, -6.575170694760345
1308, 10.46657851785858
1309, 7.302152271360683
1310, -0.25767454170181736
1311, -9.468105559585638
1312, -18.892068253431717
1313, -7.542085907877663
1314, 18.94768648599802
1315, 9.795277945894668
1316, -4.21947714808357
1317, 8.59475377286708
1318, 22.555760171380825
1319, 30.00291270377693
1320, 32.43812059700758
1321, 13.677698271023473
1322, -28.618093562848117
1323, -30.542163125427578
1324, -3.8080384142867842
1325, 6.572464010382646
1326, 7.17570626179895
1327, 2.8698435913711364
1328, -0.05475932481112977
1329, 12.776333183044699
1330, 57.55813224941721
1331, 71.25343213041924
1332, 42.42021025455506
1333, 6.400263998140872
1334, -16.997195560392356
1335, -17.077626751104617
1336, -6.619368399604355
1337, 2.8527112766378195
1338, -8.362937527494978
1339, -13.36550625298969
1340, 0.5027066072761954
1341, 16.823891029968763
1342, 23.385255012665766
1343, 7.5695997526172505
1344, -11.65020006254963
1345, -24.525295080361502
1346, -15.950697232279708
1347, 1.9112768825543753
1348, 17.179351366562514
1349, 17.836218207306047
1350, 18.239500081759616
1351, 48.635358397611526
1352, 71.88201956875218
1353, 71.78441159763406
1354, 58.8035194786662
1355, 39.83140934047151
1356, 22.463288181616917
1357, 20.464683287980733
1358, 33.171398169614804
1359, 48.03520419626784
1360, 51.90649587524695
1361, 40.56361670089882
1362, 37.434509508153496
1363, 30.648035910720864
1364, -0.4750331351533532
1365, -10.065341011809323
1366, 2.569027160818223
1367, -8.299778682191572
1368, -11.699672703741271
1369, 11.612438026609198
1370, 11.191916145635332
1371, -1.9157679278559954
1372, 5.750011379237549
1373, 7.465450761644206
1374, 0.6548859535223528
1375, 13.267634795617596
1376, 29.323670346267136
1377, 34.060637063827926
1378, 46.12767857800918
1379, 58.11569094668357
1380, 51.336693609271606
1381, 35.96208466940061
1382, 18.70645930914361
1383, 9.785599370517957
1384, 10.762206518028506
1385, 20.926591233260297
1386, 23.87030989136565
1387, 24.753169420750055
1388, 35.953235131097244
1389, 45.30391988539577
1390, 42.98832140579452
1391, 13.341617247752765
1392, -12.252661614960743
1393, -15.559164484163375
1394, -2.9609657912369585
1395, 15.313815333559432
1396, 24.689614741414516
1397, 19.925312507160925
1398, 8.524224937725194
1399, 14.16137357417665
1400, 23.412515160389376
1401, 25.10405509328757
1402, 3.6118993367026633
1403, -14.422736800346684
1404, -3.246703985536442
1405, 16.30369201684789
1406, 33.27877077072844
1407, 36.09727232166006
1408, 22.44505126859167
1409, 0.8338570116984556
1410, 2.445639236437273
1411, 8.235699835068772
1412, 3.367171060027431
1413, -3.655354926911059
1414, -13.717790850984784
1415, -27.756350742289214
1416, -22.36503732548863
1417, -1.9860770166897055
1418, 8.457198478032296
1419, 17.620351269564708
1420, 25.899359070722312
1421, 17.936245398422216
1422, 1.4049438709371316
1423, -14.621619764218849
1424, -21.36220001494894
1425, -18.970233884496338
1426, -8.900894126924868
1427, 10.70880795519497
1428, 27.090535204236403
1429, 10.992911536101019
1430, -3.212654850201943
1431, -1.6972778110321087
1432, 8.257447350232724
1433, 15.310581877990444
1434, 10.064514164789216
1435, -7.091437678633156
1436, -13.352601409535964
1437, 15.376546547029648
1438, 44.88140358547298
1439, 65.553110844603
1440, 78.58264538688582
1441, 73.21008131742019
1442, 59.450082631426994
1443, 74.08906562445827
1444, 74.21513646830863
1445, 49.56013270481162
1446, 62.50029244317375
1447, 85.53939656467082
1448, 94.44189337861462
1449, 83.25448649716691
1450, 54.12331148228077
1451, 14.698880368710888
1452, 2.4561090826118743
1453, 11.735440846310667
1454, 20.269044835509703
1455, 39.2497064576437
1456, 60.920539596439994
1457, 61.997000144178855
1458, 60.810596399537644
1459, 58.89989770502325
1460, 28.86381615934988
1461, 15.226356298994688
1462, 38.42491994363809
1463, 62.00548386945502
1464, 78.39266790698548
1465, 89.09826973702184
1466, 95.76099363371304
1467, 98.75535658439367
1468, 98.78472676638285
1469, 101.83875723230085
1470, 105.88596420279373
1471, 104.91645327896276
1472, 101.4682219005299
1473, 90.0709180365784
1474, 57.264968078931815
1475, 25.432327769515723
1476, 12.008551787976103
1477, 29.763701831163417
1478, 58.59914269685851
1479, 76.7702669053042
1480, 61.268243999553306
1481, 32.82725155834305
1482, 8.216741174272101
1483, -7.096535840173601
1484, -14.104807770824664
1485, -14.325567006323581
1486, -12.32204088562412
1487, -9.455596492873156
1488, -6.870511846022055
1489, -8.217803985789942
1490, -11.906519291660516
1491, -14.285532018468984
1492, -9.36522122579754
1493, 4.273291320281714
1494, 25.188869073826936
1495, 30.91436875585441
1496, 22.780482680755995
1497, 14.601034984942089
1498, -2.462449000671768
1499, -17.396482417292646
1500, -2.8909378446278424
1501, 1.1367757826456
1502, -9.269718587717762
1503, -6.164550711514494
1504, -1.018639351436832
1505, 6.51371460676728
1506, 31.14186324700495
1507, 28.457672911587906
1508, -3.9183757658965988
1509, -7.7940778022502855
1510, 9.401268242994774
1511, 35.40330748261567
1512, 42.381154091975986
1513, 24.397134030993584
1514, -8.172179592009343
1515, -11.259040389933944
1516, -2.6770564383850797
1517, 4.367088433305071
1518, 7.892495593750937
1519, 3.995932409420675
1520, -5.6662059337631945
1521, -8.652822603547975
1522, -11.549544497767783
1523, -14.48610032876877
1524, 4.531460136266105
1525, 23.781927247377098
1526, 24.964614664784676
1527, 10.097489493968169
1528, -3.1243143468009293
1529, -3.1613165643848333
1530, 7.54316741931234
1531, 21.965903812316355
1532, 29.706695979041797
1533, 13.701171309658093
1534, 1.6374743706765003
1535, 7.652647000591969
1536, 4.268203210174761
1537, 0.6886926322358704
1538, 2.370825773571596
1539, 1.208765300876621
1540, 6.602756202206365
1541, 17.584845814221808
1542, 6.1343771485271645
1543, -6.499274600353601
1544, -8.00180667800305
1545, -4.3148128806597015
1546, 0.06952411304519046
1547, 0.5302555307907824
1548, -10.892076276577427
1549, -19.71081431258972
1550, -13.597365616402385
1551, 20.445073993542792
1552, 32.84660294941477
1553, 13.911917772011293
1554, 2.6395499779755482
1555, -6.374042915080281
1556, -8.404134170988073
1557, 14.6655068858081
1558, 13.588568547574141
1559, -11.871141414039812
1560, -23.88192676405106
1561, -20.60636140536826
1562, -15.67462961788533
1563, -31.543486481555192
1564, -35.571506622558445
1565, -20.861970722473416
1566, 8.576808840018202
1567, 38.520955304228664
1568, 52.954591741934564
1569, 41.53669984551743
1570, 34.66209805857852
1571, 54.94713905336539
1572, 115.49590340728719
1573, 180.14668374869143
1574, 246.45078776414812
1575, 320.7023728201657
1576, 375.08153291481085
1577, 415.0058554821617
1578, 442.1691130861582
1579, 442.9421519998514
1580, 417.7582042576287
1581, 370.359026829552
1582, 308.3054181487332
1583, 223.04178847633193
1584, 130.30730897389094
1585, 81.34987871808062
1586, 30.703353597039495
1587, -17.28913713718248
1588, -32.857278699881135
1589, -37.80811119467489
1590, -26.502976017278343
1591, 5.674811016334388
1592, -0.7629096697964997
1593, -22.62508661648826
1594, -29.640460066008927
1595, -14.249733237856162
1596, -0.8580985964990759
1597, -1.994252416055133
1598, -6.820425088871161
1599, -5.248808857430959
1600, 5.36652614869854
1601, 19.882986658178197
1602, 15.652125829027682
1603, 1.2255707258764232
1604, 1.9834452616460112
1605, 8.285797963044388
1606, 14.900113623172729
1607, 16.69624501205908
1608, 2.2750560251161005
1609, -7.322514774746196
1610, -1.947457581346498
1611, -3.7564728728775663
1612, -5.593324888706775
1613, -4.24686060604472
1614, -2.2784622613489773
1615, 19.003081352198933
1616, 42.40127684523668
1617, 30.057282232541183
1618, 6.755884199245884
1619, -6.292721742603135
1620, 3.199312398267466
1621, 22.98214724949503
1622, 30.89797536981405
1623, 17.545365022651822
1624, -1.8470010147557332
1625, 5.914222832912856
1626, 30.814572467434118
1627, 23.681516001302043
1628, 24.120154066412397
1629, 22.552728942372596
1630, -1.6685566420119358
1631, -7.483774594030365
1632, -11.181183052774031
1633, -19.1056368002246
1634, 7.368079294179552
1635, 29.327223472241712
1636, 23.358495132312783
1637, -9.238758243231132
1638, -15.659173470941823
1639, 1.3972911117980402
1640, 19.559261496517138
1641, 28.694539435599836
1642, 9.18611964370848
1643, -29.298958974309244
1644, -16.986198475140554
1645, -1.0749023663183834
1646, 1.0898156950051998
1647, -1.8453013521138928
1648, -2.656515227940872
1649, 2.188759095345631
1650, 7.1690995604221825
##END=



