##NAMES=
##LOCALITY=
##RRUFFID=
##CHEMISTRY=
320, 0.5541865961095027
321, 17.79594445134353
322, 27.318695367899636
323, 23.566015184836942
324, 12.895837642969127
325, 6.469259594634423
326, 4.147891770580827
327, 1.8713303257081861
328, -0.2421290740967379
329, 4.624508982022235
330, 18.55590084376672
331, 34.75263301559244
332, 46.862792698053454
333, 57.06886246266731
334, 68.13283592616062
335, 77.2483247292148
336, 76.65635413176642
337, 66.66861325073114
338, 51.993813732909985
339, 34.30230391515397
340, 33.41249423496629
341, 55.4437184569324
342, 79.18665449155014
343, 89.94212027075446
344, 90.35914694696658
345, 85.34260683665161
346, 74.47794395650635
347, 55.71777213180212
348, 30.511547364876606
349, 17.4259153813764
350, 18.798868567590034
351, 28.37496289059345
352, 40.9794476957868
353, 46.996726338264125
354, 35.53999271099383
355, 14.049235825050346
356, 1.8007303533922823
357, -2.76324803089301
358, -5.7219073713131365
359, -7.698890850355383
360, -3.014330731353766
361, 10.366660584602869
362, 14.07852158631431
363, -3.607162336760666
364, -23.840506963450025
365, -22.350948145394796
366, -7.076061728899731
367, 0.4908142128806503
368, 1.1218966876294871
369, 2.9763899917361414
370, 7.478812080142234
371, 13.82144201119445
372, 20.83303350549977
373, 29.538460455638415
374, 40.64411356378878
375, 45.32763794065977
376, 30.615388239684762
377, 4.726037682461538
378, -7.476943163916076
379, -7.6603517138592
380, -8.043351958231142
381, -10.456982403615257
382, -11.112123185177552
383, -8.704916487873561
384, -5.170660752572076
385, -1.6291277007785538
386, 2.6577597806972335
387, 8.660729958821321
388, 12.471781608615856
389, 4.035605584875157
390, -13.836903777240877
391, -23.845025175087358
392, -24.859980748933594
393, -26.490932001854162
394, -31.78042842902869
395, -36.25283027457226
396, -37.371739149817586
397, -35.25418392835854
398, -29.692373979003605
399, -20.915221723285867
400, -9.88500591533193
401, 2.204869769335346
402, 6.599985734490474
403, 3.4073973011036287
404, 0.7035889829112421
405, 0.715672314450785
406, 15.49521341394393
407, 52.226778171710976
408, 100.8792915416725
409, 153.83036065552005
410, 200.96770507164547
411, 242.25448156029051
412, 278.69117414428365
413, 313.5869424800185
414, 347.03292246428646
415, 377.93276556520686
416, 405.539752939123
417, 421.40257625729464
418, 422.76044506343897
419, 417.7847835284574
420, 411.55621695625814
421, 406.5376523715913
422, 405.68999466505556
423, 405.6181201893414
424, 398.76656817918956
425, 385.25862401907943
426, 366.7068983106892
427, 344.14509951338914
428, 324.4296863417894
429, 308.0767168729144
430, 275.79691259529864
431, 220.1576833944673
432, 157.55447044113862
433, 99.50788150715016
434, 56.260237984392006
435, 23.863543013290837
436, 3.5738695671279856
437, 4.039446757555197
438, 19.01650160180907
439, 21.546537143694877
440, 10.384554597168972
441, -1.9193456514640275
442, -13.16744406473481
443, -15.934273658986058
444, -7.163835859506435
445, 15.384314967188402
446, 54.89430726336104
447, 105.2329705405482
448, 148.33099490558016
449, 178.02738577556556
450, 180.9453452130274
451, 163.94716294182217
452, 154.61531084020862
453, 154.0957930688237
454, 152.14348043885548
455, 147.0548221620429
456, 142.25961509817898
457, 138.75275967849302
458, 129.33573117844026
459, 109.96929865263337
460, 82.78367912220165
461, 49.87504358734441
462, 22.337476766191685
463, 7.957475881321443
464, 0.9841989739998098
465, -12.266070671037596
466, -30.853157242734596
467, -41.465399787071874
468, -43.493706678742456
469, -40.49630443258866
470, -33.10429175368154
471, -23.235707779098448
472, -11.021142648523892
473, -0.6059063724824227
474, 5.4896654990388924
475, 4.650675073104139
476, -6.192889728163209
477, -17.01593725919156
478, -8.474726776372336
479, 12.196390579343642
480, 19.058497472715317
481, 13.358330664676032
482, 11.516920902353377
483, 14.784914592677524
484, 12.938844637423244
485, 3.8922201982932165
486, -3.2986503031297616
487, -5.905537900811396
488, -3.3905328834225656
489, 5.006188348173964
490, 15.199119932240137
491, 21.467316810814737
492, 26.715272996743806
493, 35.98479210724145
494, 44.682443476760454
495, 39.978099318972454
496, 24.11925110687298
497, 10.098574468576771
498, -0.5499755781565909
499, -16.126023170289045
500, -38.464511922698875
501, -53.537780260450745
502, -57.5083157993995
503, -45.23962004340683
504, -12.80642883825385
505, 27.447832976018617
506, 67.41859904773264
507, 97.36339734330795
508, 108.44493097553277
509, 106.98538180520882
510, 105.4817009270264
511, 106.93623209996804
512, 130.05888442869218
513, 161.56647416150736
514, 186.94156193220988
515, 204.3109741981607
516, 213.3253969588768
517, 215.16354624859923
518, 226.8885405442561
519, 253.0854606816174
520, 267.8758021993053
521, 259.0135222082117
522, 236.94893981367386
523, 209.18656966034905
524, 173.07981108484455
525, 125.65945775086584
526, 76.80809548198158
527, 51.08171563403084
528, 38.9488640435502
529, 20.915510619746783
530, 0.3631755857295502
531, -2.1310278039200057
532, 10.691909988976477
533, 13.980092254272677
534, 6.241366121745159
535, 7.242983534175437
536, 21.034464815058527
537, 33.35182117759177
538, 36.9545096065649
539, 48.64440382439534
540, 71.29487843331117
541, 90.88112168602129
542, 97.04471563150037
543, 95.95082021975213
544, 94.43301168877406
545, 92.8131082722357
546, 91.60691533008503
547, 88.11201923794943
548, 76.04541585235893
549, 60.02800749747621
550, 62.09552758245263
551, 73.59055310366057
552, 76.04356297509003
553, 68.59159473264299
554, 61.81347979022394
555, 57.130429379558336
556, 47.65839028289338
557, 31.75433684228301
558, 14.587735785273253
559, -0.2076813708699774
560, -6.487297847404989
561, -0.8305219916110218
562, 7.138181893875299
563, 10.550988656386835
564, 11.722362444970713
565, 13.918315850785802
566, 12.871799980219294
567, 2.097759476824649
568, -10.925088483021682
569, -12.199109806650085
570, -5.859155456953886
571, -3.982982248893677
572, -6.040876005008613
573, -7.927326164059195
574, -9.936808254084099
575, -15.124829088097613
576, -23.349966625830348
577, -27.190183707532924
578, -25.039237822202267
579, -13.501575404468895
580, 8.790739370884694
581, 31.153748035882018
582, 47.70233869696858
583, 54.043872416983504
584, 48.0413028897965
585, 36.40140001582586
586, 23.595438207852567
587, 10.89491651033859
588, 0.53070155374553
589, -5.58618302314062
590, -4.466484617665628
591, -0.3793427518758108
592, -0.03139987054964877
593, -1.0979143666245363
594, 1.3625380546127417
595, 4.455495731641349
596, -0.5465982571004133
597, -8.088733979333483
598, 4.3225989071288495
599, 33.58774138095578
600, 49.87155499549408
601, 51.32892263990652
602, 49.05373536325533
603, 43.50744781890171
604, 23.059714576513215
605, -12.005781972267869
606, -29.862087282941502
607, -24.53774512671953
608, -23.64907538715852
609, -36.24330275878128
610, -34.975772181907814
611, -7.419986678627538
612, 12.020876845881503
613, 3.0881594703369046
614, -7.488656156931029
615, -1.8338747508405504
616, 2.921352455508895
617, -9.145509617093921
618, -21.855512015448767
619, -16.603173618090295
620, -4.6151656402798835
621, -1.8724446369051293
622, -3.4537032218577224
623, -0.8784870570943895
624, 2.9875414956241
625, 1.2524226769437519
626, -1.5578435552361043
627, 7.603836770889757
628, 28.97094770649346
629, 60.05230894346096
630, 101.57680759096547
631, 139.52691157786649
632, 170.00130879676544
633, 178.1104469642196
634, 167.81668242310116
635, 174.39411316125006
636, 200.8803967702679
637, 226.70818367459287
638, 246.71344896080518
639, 251.56413692964634
640, 240.48525847044584
641, 231.31543763155605
642, 228.3892162670927
643, 218.40281269262232
644, 197.23907570655683
645, 174.58488747514093
646, 153.84521938878788
647, 119.52220347078037
648, 65.04192844739555
649, 32.33455715335185
650, 37.18981330811221
651, 43.34136181408758
652, 23.655075160526394
653, 7.215607361287766
654, 12.303113301515623
655, 22.83610954537653
656, 23.137361824870823
657, 14.950388097748146
658, 0.05168165137729375
659, -13.095223491711295
660, -15.7861848959692
661, -12.783675827929983
662, -9.93247089781471
663, -4.228123937245982
664, 9.179112819794682
665, 17.68226568193495
666, -1.7156088095307496
667, -29.689717011331595
668, -29.630959117810562
669, -13.702213580460011
670, -9.601259289058362
671, -12.195857334674656
672, -7.477628440417902
673, 0.32652607404270384
674, -2.6818891200582584
675, -11.851722593377417
676, -10.561429172243152
677, -0.25181846448140277
678, 10.853728956932173
679, 23.739889505328392
680, 41.96082155685872
681, 63.42335218453627
682, 88.41893516892378
683, 113.16752266607182
684, 120.87138705388679
685, 111.89701263372808
686, 97.55768320720927
687, 79.00049447125457
688, 54.453248785317555
689, 26.13554195153847
690, 10.745351945517541
691, 6.683418576556505
692, -0.5248760834729183
693, -11.450928884589302
694, -10.161377713311595
695, 3.3065525725196494
696, 6.593485621524451
697, -2.9711834975732927
698, -7.676047133867542
699, -5.316414667455319
700, -4.776445444433193
701, -6.559989673436576
702, 2.0922799744203076
703, 21.910361018974072
704, 23.0552752932781
705, 1.4783700353727909
706, -10.724329124293945
707, -7.651025763510916
708, -0.031979309886082774
709, 10.966267622145097
710, 37.47037183795874
711, 83.18904983744869
712, 121.72924362172489
713, 147.12949014402693
714, 164.75673852157342
715, 176.4605555241469
716, 185.80703202817858
717, 193.69378135495026
718, 198.10393787471912
719, 199.0403900960191
720, 204.35815387049843
721, 215.22726857888665
722, 215.6285811089183
723, 201.62625554203987
724, 186.3450068276161
725, 174.003641807838
726, 166.6557031133525
727, 164.54224626367068
728, 162.50548653776423
729, 158.47321784385167
730, 146.2446476541063
731, 124.08820004708468
732, 94.12549749809659
733, 57.94174780758112
734, 32.9860714549377
735, 19.246352157600995
736, 3.454370327261131
737, -17.567997182906765
738, -24.22678396145784
739, -12.463411402713973
740, 2.6828985913871293
741, 17.027939070165303
742, 17.561980262285942
743, 2.141398368506998
744, -16.183469065845202
745, -33.309688710001865
746, -26.062171687708542
747, 9.85120927112439
748, 54.58428533701226
749, 98.83092233273965
750, 119.44871555187456
751, 114.53918012738359
752, 110.18330171936213
753, 111.26131468158019
754, 112.7629933307926
755, 113.20761809283431
756, 109.36763742871517
757, 98.75763697138245
758, 69.5402303530318
759, 24.13074033902194
760, -8.939781154347656
761, -28.16138563576351
762, -32.239047633755035
763, -23.419849031017293
764, -12.247950454215243
765, -0.4457309684694337
766, 7.290560086710684
767, 11.07540184662139
768, 10.422080630662094
769, 9.958671628168304
770, 23.0990340854205
771, 42.327115020181736
772, 40.71838573880814
773, 23.33254849387413
774, 13.078712698972595
775, 9.123264249599742
776, 5.332618884762269
777, 1.888589540594694
778, 0.9740788607341528
779, -1.404211914708867
780, -14.739848027382322
781, -29.245378652993168
782, -22.732536593974146
783, -7.004801258508451
784, -4.640162620551564
785, -3.9714638822242705
786, 14.494418344242149
787, 38.82737571157486
788, 47.469897910690634
789, 47.081496694720045
790, 46.1805588453135
791, 40.637130416978835
792, 25.96410625207136
793, 19.46921979020408
794, 34.07697160243697
795, 58.09407456986264
796, 77.65454529051021
797, 90.77300996588747
798, 96.35781260217846
799, 110.02437640714561
800, 139.94778382803997
801, 150.14211318022535
802, 123.66180034599529
803, 89.98488602636462
804, 62.048090444928675
805, 43.416581662355384
806, 39.29110983456485
807, 43.097687894594856
808, 47.628555403773134
809, 38.923520465124966
810, 16.37832401923515
811, 6.99406146311776
812, 12.585225326201908
813, 14.881431467216316
814, 10.55415648277085
815, 6.917570144059937
816, 4.66551684895785
817, -1.1649796769743261
818, -8.16343486281221
819, -4.220882383511707
820, 3.3125371171463485
821, -11.304632079560179
822, -35.38402787041923
823, -32.29789686891854
824, -9.741662499272934
825, 14.803955120156388
826, 41.77298177677767
827, 67.28161990674562
828, 80.63676790960562
829, 67.69464845222683
830, 41.529986124211064
831, 15.9921037797194
832, -0.7252067284152872
833, -4.896886366450417
834, -1.2570713476179662
835, 7.500820800441943
836, 12.862487986090855
837, 9.41093027498755
838, 2.805427153207347
839, -3.9953813989068294
840, -7.049153933969137
841, -5.751412303994584
842, -6.407283146467307
843, -9.901579868957924
844, -10.112677957335109
845, -6.341688585107477
846, -1.5500838716525323
847, 3.156740832462674
848, 3.3806874261354096
849, -0.28799803693073045
850, -4.236878467319912
851, -9.448754001447014
852, -18.67951800787887
853, -25.86682169825872
854, -17.666566709063773
855, -3.2005322545846866
856, 3.27737758524745
857, 11.959814554944387
858, 34.807675478459714
859, 55.11175130763331
860, 60.01632716223139
861, 69.23619120372678
862, 94.32992299336729
863, 106.62768240606783
864, 93.63848740722096
865, 76.38076626324619
866, 62.08042326854775
867, 46.59720489045685
868, 30.380710602517865
869, 27.94213804038918
870, 37.39351803072532
871, 35.60179202797917
872, 22.731278419390947
873, 10.292446577986993
874, 2.2393883639560954
875, 2.8253443455560046
876, 10.20511484824965
877, 20.595103519493932
878, 30.110352685640464
879, 34.64598103677963
880, 32.60561119997146
881, 22.340034663402548
882, 8.232412375215063
883, -5.342727611103328
884, -8.501067776276614
885, 3.5732650721492973
886, 12.592721196515413
887, 11.297547641037454
888, 8.390431434228958
889, 5.174326466119965
890, -6.2552593959117075
891, -23.089216196287452
892, -19.371330382376982
893, 2.662512458035053
894, 23.495722031993864
895, 39.16295815534613
896, 45.08899611963716
897, 41.566618826125705
898, 29.457362701858074
899, 11.726976392446886
900, -6.889036485043107
901, -14.629129400223974
902, -1.8236667348392075
903, 10.994040256184235
904, 12.467478822354678
905, 12.070434469542306
906, 12.605957391309857
907, 5.30964922871317
908, -8.5848633371279
909, -10.990385235496433
910, -1.551212149714047
911, 8.532908750325078
912, 19.495079431088016
913, 32.16335532798621
914, 41.72962896430727
915, 38.53357809217414
916, 29.945665034496415
917, 26.05810755759194
918, 28.374139374591323
919, 36.102383019345325
920, 44.357372506392494
921, 52.01530020280734
922, 59.737263434480155
923, 67.62405672603927
924, 74.19550323528165
925, 78.03722687892787
926, 73.07010932498724
927, 60.69312764814276
928, 49.86608889647323
929, 42.631657340488346
930, 46.19488455375722
931, 54.04132260667484
932, 62.26765392933885
933, 61.06512293718424
934, 40.441169300753245
935, 13.893787082591189
936, -8.008586745010689
937, -18.770060245621607
938, -15.923446599359522
939, -0.7456188964924877
940, 24.346658727978138
941, 37.71529158384328
942, 38.7002961290591
943, 39.02959036440461
944, 37.045978854565874
945, 25.895894435726404
946, 15.257855887299229
947, 22.242708768876582
948, 27.471064400229807
949, 14.182624991395642
950, 8.178156744739681
951, 21.72386825781541
952, 28.70831887518125
953, 21.911904064836563
954, 19.95403572565374
955, 24.117946729917094
956, 19.513642523763338
957, 10.379509008837886
958, 16.645900907778014
959, 29.032478832172274
960, 29.568586956308536
961, 20.664329898478172
962, 5.623049265483132
963, -7.996043501403619
964, -16.496633319321518
965, -12.51780824000798
966, 5.381595140711397
967, 16.440807858315566
968, 15.587855506410051
969, 8.720752786351113
970, -1.8301022023442783
971, -11.66165720861045
972, -16.726207694907316
973, -8.672791012939342
974, 3.0633379161345147
975, 8.123416317036572
976, 9.01322188465474
977, 7.19536343936943
978, -3.4234453365934314
979, -21.885848844539396
980, -20.0131953764012
981, 0.1554952113328909
982, 0.35010316770149075
983, -13.168415586828814
984, -12.42038880025666
985, -8.82862134541665
986, -22.272477684541627
987, -28.958491303033952
988, -8.627447441744152
989, 5.1698368438846956
990, -2.0450295265036402
991, -3.348340916242705
992, 6.052597089939809
993, 10.200895297622992
994, 11.258630878814984
995, 23.684559421892118
996, 45.52979938540466
997, 66.46318556201368
998, 79.09731216448745
999, 76.18327057929491
1000, 67.78772543772538
1001, 60.34033351083963
1002, 64.18318594892116
1003, 79.83250737785056
1004, 89.23718390161685
1005, 87.07168371931857
1006, 66.03568440125673
1007, 32.057919898539694
1008, 1.0202174277474114
1009, -9.558260364378839
1010, 19.959760809090767
1011, 57.16210280475207
1012, 80.55570192636878
1013, 95.69963177774753
1014, 103.3114552971474
1015, 97.20482105167594
1016, 83.35656492864109
1017, 84.10627999037933
1018, 91.87795078332965
1019, 90.42925626156466
1020, 87.58704216241131
1021, 90.59803978332184
1022, 92.2193924987323
1023, 87.88179541318095
1024, 66.80553040937866
1025, 32.305335614073556
1026, 17.656427680418346
1027, 20.10468655227578
1028, 26.24781660710596
1029, 34.849555684575535
1030, 41.659203973945296
1031, 42.93128154217084
1032, 37.200135547825994
1033, 44.74348546224064
1034, 66.97511677804778
1035, 61.5039612882174
1036, 30.53225213722817
1037, 9.814202233928881
1038, -0.5710853301461611
1039, -8.842540908831324
1040, -8.413923569334656
1041, 6.81992598890065
1042, 12.736828425921885
1043, -0.68114387627611
1044, -9.267011736577842
1045, -10.11095647440743
1046, -12.222682081757739
1047, -16.1126629347591
1048, -20.63396393899893
1049, -24.535067927360615
1050, -26.3831333573753
1051, -25.787072825420182
1052, -22.334677932793056
1053, -15.202342788574242
1054, -5.219905982035925
1055, 0.6904356082150116
1056, 2.2385830364846697
1057, -0.09593471404423326
1058, -3.784921022468552
1059, -6.0765646713825845
1060, -13.137807819402951
1061, -27.517911421260578
1062, -33.650824825655036
1063, -27.667500763571297
1064, -10.46004907626957
1065, 21.27521335578058
1066, 74.86453547166457
1067, 146.5835129328907
1068, 232.92550619364283
1069, 314.29682935780147
1070, 388.63201631712127
1071, 461.5921018875433
1072, 533.9904703771126
1073, 602.8920929000042
1074, 661.1369973142164
1075, 694.3477280177376
1076, 701.1760727178407
1077, 680.7635903931596
1078, 633.6256257262858
1079, 564.373297909031
1080, 509.00032779672256
1081, 465.4592203516995
1082, 397.7229888599368
1083, 313.13815177057586
1084, 229.92648431409725
1085, 141.7630307857453
1086, 60.09469542412444
1087, 18.63509504508329
1088, 19.04508877270382
1089, 4.428878690240708
1090, -24.8839381961443
1091, -41.12050018643822
1092, -48.04550593575823
1093, -51.0244626341364
1094, -38.12136818891031
1095, -5.2767130851043476
1096, 8.931617482735419
1097, 0.8303753094151034
1098, -1.945714044613851
1099, -1.777572371529459
1100, -8.154451512727064
1101, -10.914905504457238
1102, -2.3163658107632727
1103, -0.5505877442092242
1104, -9.15104844689904
1105, -8.817766829676657
1106, -1.9768381606299954
1107, -2.95276745861338
1108, -4.28596420167014
1109, 3.0874966833162034
1110, 1.5108599905133815
1111, -14.46908894866101
1112, -17.788556267618333
1113, -8.120948762568332
1114, -4.004456727561774
1115, 2.7890689394998844
1116, 26.929970128399873
1117, 44.43400884021412
1118, 40.86094050150041
1119, 23.485678668006585
1120, -0.2806414566539388
1121, -8.071637276838374
1122, -6.887946241332429
1123, -12.51879386924793
1124, -10.981413686225096
1125, 6.828556992485574
1126, 8.47083180804475
1127, -7.05686903251717
1128, 8.09679397837408
1129, 40.399267675971714
1130, 43.860096349229934
1131, 43.5451819240443
1132, 60.22782358266977
1133, 59.94260610679066
1134, 38.09581493766291
1135, 40.15937820623549
1136, 61.59753130027548
1137, 73.9942856604739
1138, 85.02948154231126
1139, 101.54028408773775
1140, 104.90846028676333
1141, 91.82191551683081
1142, 82.8706019438514
1143, 76.32339813447743
1144, 61.1896648187294
1145, 43.480745760440186
1146, 29.0954364811887
1147, 22.30574526379405
1148, 21.605405658558084
1149, 17.720862263631716
1150, 9.590089996231654
1151, -1.8931058067528284
1152, -12.998369489160723
1153, -20.268988475687365
1154, -17.301860903929082
1155, -4.120901818227139
1156, 7.416295491239907
1157, 15.63814547824768
1158, 17.686226095092024
1159, 20.23669157918448
1160, 27.189088095929947
1161, 25.430305539123765
1162, 13.342989875623061
1163, 0.195956647678031
1164, -11.918402407563008
1165, -22.319112895494072
1166, -24.142076471404835
1167, -14.25154002711679
1168, -5.3425939065209604
1169, 0.613651636405848
1170, 5.72198598934483
1171, 9.681393269001092
1172, 11.952951968526577
1173, 9.88480000756681
1174, 3.308501205405264
1175, -0.17252262105375848
1176, -1.5148202363543533
1177, -5.657251978623208
1178, -3.892523166265164
1179, 11.449593170857952
1180, 22.62475069282118
1181, 24.510786624356115
1182, 30.24865529802355
1183, 35.040186300137066
1184, 27.690887571141502
1185, 32.72582703416538
1186, 62.15415426539039
1187, 89.06301536179126
1188, 106.55834660385517
1189, 111.17212255891718
1190, 102.19351551593354
1191, 79.10536231317565
1192, 42.50848648347437
1193, -0.7372979515967018
1194, -14.195847736778887
1195, -8.368595610354532
1196, -12.564188393276709
1197, -13.151562359496893
1198, -1.7262545203648187
1199, -0.43680849301199487
1200, -5.637490766392148
1201, 14.48035909922055
1202, 39.30927424157744
1203, 37.97545840510611
1204, 43.57963911458137
1205, 65.9247372569007
1206, 81.26168652459091
1207, 87.40269359621016
1208, 86.79855128839517
1209, 59.23136291203264
1210, -0.20115162707043055
1211, -13.062195095667448
1212, 18.211211555285445
1213, 37.819307288576056
1214, 46.10118194152437
1215, 48.56663159764048
1216, 33.60446041969317
1217, 4.748436717829463
1218, -4.017588182903637
1219, 2.7695796029447592
1220, 13.683235550458448
1221, 11.446265580544605
1222, -7.407930086688793
1223, -10.108191029103182
1224, -5.2171255985686
1225, -23.061459302134608
1226, -36.463551582902255
1227, -28.076290656534184
1228, -25.125549416693502
1229, -26.091988611277884
1230, -6.710013835571772
1231, 15.574924138880306
1232, 21.032003569162953
1233, 16.581987161368488
1234, 7.6007502757083785
1235, 6.697830813188375
1236, 7.902084558931165
1237, 2.451523653681761
1238, 2.444393017580296
1239, 12.82913779069986
1240, 32.09487554099269
1241, 54.967961033750726
1242, 74.80890068786812
1243, 69.59836289609302
1244, 36.50459402150227
1245, 35.470060313279646
1246, 62.611126226214765
1247, 86.11892104808248
1248, 90.45230315537356
1249, 68.44732487213332
1250, 38.208536073883806
1251, 17.243522876885436
1252, 27.051438668083392
1253, 53.94186703849755
1254, 81.55033101798199
1255, 92.83569895445362
1256, 89.00290201749158
1257, 84.92628592317669
1258, 66.14091015850863
1259, 23.32956656364513
1260, 1.4368134876585827
1261, 4.611074958822428
1262, 16.607029400528518
1263, 30.83162006333805
1264, 38.99823948659014
1265, 37.141253625064564
1266, 28.952184748452964
1267, 30.153079242846616
1268, 34.56935827954385
1269, 34.956028640895966
1270, 33.588756556586304
1271, 30.324702056595925
1272, 22.32109731988112
1273, 14.75071982814552
1274, 13.983139767023204
1275, 9.418621463954878
1276, 3.6271735619848187
1277, 11.017449308945288
1278, 15.409470135005904
1279, 1.6405134303859086
1280, -2.216971882670805
1281, 6.024225143099102
1282, 7.785358037697733
1283, 16.851205311641934
1284, 43.57471737911783
1285, 46.98837503210325
1286, 25.586825666219738
1287, 10.76655522270812
1288, 0.9058817770219321
1289, -6.966759971396641
1290, 10.251422075987648
1291, 44.78484960583501
1292, 52.46818101290319
1293, 51.83218503399712
1294, 56.948458944938466
1295, 46.773552227545224
1296, 28.83512746840006
1297, 35.605648758863026
1298, 40.733116092573255
1299, 30.91169840200837
1300, 30.8001418813692
1301, 33.425792788211766
1302, 15.242559163057194
1303, 8.281452448846721
1304, 23.984785179399296
1305, 29.761366301541784
1306, 23.409208920634228
1307, 9.872131106577399
1308, -7.603424993774752
1309, -27.082043856781638
1310, -38.30047613785064
1311, -39.036890640854836
1312, -26.869159904434127
1313, 0.6290144772392523
1314, 35.36863793322755
1315, 37.75670969842122
1316, 20.679759897084296
1317, 1.2353334274066583
1318, -8.420386789233817
1319, -4.35585238940439
1320, 17.797483620433013
1321, 25.225063918171145
1322, 0.050627554852326284
1323, -14.948338341608178
1324, -12.135292626267074
1325, 9.214174233797166
1326, 21.217192953514314
1327, 12.95880781811502
1328, 3.6253988892676716
1329, -3.665664178593943
1330, -8.800308144853261
1331, -2.3600527929147574
1332, 11.305831222689449
1333, 4.097122785242391
1334, -1.8536112645870162
1335, 10.974293260032027
1336, 14.964332507887775
1337, 8.229897997232001
1338, 1.3845279173838207
1339, -6.111996849183015
1340, -12.551095327818985
1341, -2.0445347104741813
1342, 16.280870243956997
1343, 24.678756513374537
1344, 26.520204654564623
1345, 21.97807218469461
1346, 7.360802741362022
1347, -2.574191049005094
1348, 1.135120357885171
1349, -0.4256796413083066
1350, -2.888179754146222
1351, 11.29951964941938
1352, 30.986524671450752
1353, 44.700512745634114
1354, 35.598380310031644
1355, 12.47100473178125
1356, -8.685334161553328
1357, -8.114606957502474
1358, 14.201637283943455
1359, 42.7444545224198
1360, 47.69867694470122
1361, 19.25726912058326
1362, 4.941106405844948
1363, 8.345735353575037
1364, 21.812303591521413
1365, 26.5638584887256
1366, 17.62099051721998
1367, -0.21623657349391578
1368, -3.5086574917477265
1369, 20.03110517974619
1370, 36.07397033079451
1371, 33.16533190756218
1372, 4.861062561471044
1373, -14.00507327057585
1374, -10.296279239280011
1375, 20.537548032507402
1376, 51.97344199102736
1377, 59.53051557427443
1378, 57.8982587664068
1379, 53.73661618376991
1380, 53.57866822235337
1381, 60.64050953792594
1382, 68.223565698323
1383, 49.70364114362383
1384, 33.19719713982249
1385, 42.10991361705419
1386, 46.07699622266864
1387, 41.5829043135891
1388, 31.181051565329653
1389, 12.944620319153728
1390, -5.506565805332684
1391, -4.636451517229034
1392, 2.8587435799026935
1393, 6.577476470318288
1394, 0.07780358146465005
1395, -6.98455755798841
1396, -0.28082208339583303
1397, 11.14957179328303
1398, 21.582968263404837
1399, 24.362787454736463
1400, 23.84809572093218
1401, 20.306556472068223
1402, 2.7071631772832916
1403, -12.951679352491738
1404, -10.935677178342303
1405, 1.1914607030430489
1406, 16.889378656372173
1407, 24.273842296979637
1408, 12.399287824127896
1409, -11.55990115203349
1410, -9.87993631178415
1411, 5.195781583054668
1412, 21.214007517170103
1413, 22.621340768056143
1414, 11.98364580768066
1415, -2.4899866020068657
1416, -2.896271843166687
1417, 4.942257932476423
1418, -2.861499176346115
1419, -10.706183532767682
1420, -13.443991190833913
1421, -19.26362086652989
1422, -15.289153483550763
1423, 6.413602932849244
1424, 23.919026668837432
1425, 29.77692446425317
1426, 21.1722726070102
1427, 6.648427367397744
1428, -7.966325687955759
1429, -18.066778016267563
1430, -18.437077117597255
1431, -7.5000268295461865
1432, 11.798539558175435
1433, 28.735061586784468
1434, 32.78438755506704
1435, 21.473988886446023
1436, 3.0014540023830705
1437, -9.719466721114259
1438, 6.296854089640874
1439, 45.10558909438896
1440, 80.26175171451177
1441, 84.36488022621324
1442, 58.4197211019391
1443, 32.09496229858814
1444, 17.331526081440643
1445, 19.454485153571113
1446, 50.23081810244912
1447, 82.14607461681317
1448, 93.80063603186954
1449, 87.76553391058133
1450, 60.643681583719626
1451, 12.503361837660123
1452, -9.797044851909959
1453, -5.905836272178931
1454, 8.890880531064795
1455, 34.68735628324248
1456, 58.1214337242709
1457, 49.982120392405704
1458, 42.362331221411296
1459, 43.313209343424205
1460, 23.874983413978953
1461, 10.412480714215235
1462, 15.380094695548905
1463, 19.27762497947242
1464, 31.84382079300849
1465, 60.97353492604361
1466, 71.94851090346674
1467, 67.82315786638446
1468, 61.4204644570209
1469, 63.742451295976934
1470, 76.01211541306293
1471, 94.5306439797996
1472, 104.4943998902454
1473, 91.86142180332536
1474, 38.55240336654697
1475, 11.147626155284343
1476, 20.331931067133155
1477, 27.00281541255754
1478, 33.377717657647736
1479, 35.29760743764564
1480, 4.294421801423596
1481, -7.960734693854647
1482, 20.678711253967776
1483, 27.200138332184906
1484, 12.977980488334651
1485, -10.653013347158776
1486, -26.105164802454055
1487, -28.38611130170011
1488, -15.07788362872634
1489, 6.442661667568245
1490, 27.85179429692016
1491, 36.748975583899664
1492, 31.923867698646063
1493, 12.64281526727882
1494, -18.775101334828832
1495, -28.282869328776542
1496, -15.08760354603146
1497, 4.610713281718745
1498, 12.265883694684817
1499, 9.247489132521878
1500, 13.235910440156658
1501, 6.74410621367042
1502, -5.3022105265390564
1503, 2.5931839645145374
1504, 9.40883369984931
1505, 11.609028523305824
1506, 26.935823351962426
1507, 25.29055165816044
1508, 3.1643320172570384
1509, -3.6266448361193397
1510, 8.271557954210948
1511, 29.236822472408676
1512, 20.006417731421607
1513, 0.10445515878836886
1514, -14.270817519510274
1515, -13.407721324265367
1516, 10.994953987879853
1517, 51.88646707056978
1518, 54.995170436587614
1519, 39.67643387826229
1520, 22.678156335393396
1521, 6.576059755016104
1522, -2.8592442158187623
1523, -6.348963704757807
1524, -16.881273179144955
1525, -13.594804323081917
1526, 10.201190943240363
1527, 13.63397695198455
1528, 3.6722062386115795
1529, -6.850334671068595
1530, -1.3949491644098089
1531, 16.421312834504533
1532, 36.300401041426085
1533, 32.7289027535835
1534, 15.610595351742631
1535, 1.2070657518906955
1536, 19.56515016630874
1537, 30.481404933054364
1538, 12.303898138879958
1539, -4.621407139319672
1540, -9.030981284780864
1541, 0.5099713164972854
1542, 10.884054634693712
1543, 5.456049677235569
1544, -15.947902634980892
1545, -25.118271008451302
1546, -9.526878691015554
1547, 25.668832192622176
1548, 39.95799770455233
1549, 42.73067337752855
1550, 36.942282197562236
1551, 13.183065791727131
1552, 10.492864884450682
1553, 25.63050671182191
1554, 3.506955529914194
1555, -7.056938670715681
1556, 1.9042449678145204
1557, 1.6664958783330803
1558, -0.6062280350097353
1559, -9.825167450405388
1560, -39.83278617704582
1561, -46.93743160316808
1562, -30.644336730515533
1563, -15.220892501586604
1564, -7.432160584680787
1565, -7.106339895823112
1566, -9.540147567446184
1567, 5.174672487265525
1568, 20.98560747870215
1569, 16.714918064985795
1570, 28.770318545618466
1571, 61.63480705947859
1572, 113.57435109290873
1573, 183.38692072413778
1574, 246.05100850202143
1575, 293.74712400432963
1576, 337.5697577338806
1577, 375.02708606158467
1578, 396.33597223174456
1579, 377.3022006649562
1580, 360.97912149984495
1581, 351.83835087607895
1582, 299.9498868652299
1583, 234.22996424659777
1584, 163.44754954598284
1585, 82.23711345961601
1586, 44.25668290460089
1587, 33.11033416247119
1588, 6.960481974039794
1589, -7.621117030057576
1590, -7.804740736416534
1591, -0.5488266461015883
1592, -7.249369359418779
1593, -20.039416712437742
1594, -29.547586412199962
1595, -37.53421140865339
1596, -26.24511281024843
1597, 1.3368751230764246
1598, -2.5205015665414976
1599, -4.734850369315609
1600, 5.455539410590063
1601, 14.97160574017471
1602, 31.805784210892853
1603, 36.97105895394088
1604, 1.7092042427675551
1605, -4.443463136518403
1606, 11.527949394395364
1607, 24.566832582266215
1608, 29.961747872076558
1609, 21.400740533036696
1610, 2.330802189600945
1611, 1.7932169645127942
1612, -0.52873930140413
1613, -8.90988479364205
1614, -4.150337839484564
1615, 16.557142148375533
1616, 38.44147822406467
1617, 35.97769601254913
1618, 18.716399619610456
1619, 7.384177662879665
1620, 17.909175786310698
1621, 23.420695018896367
1622, 14.784692238389653
1623, -6.211574056011159
1624, -21.560505451479003
1625, -14.460552277889292
1626, 10.542541133582745
1627, 28.49582454004576
1628, 27.81833761211965
1629, 13.431639254664333
1630, -3.5834301705572216
1631, -16.707180631477968
1632, -15.540021826017437
1633, 4.091146270273384
1634, 29.442462172802152
1635, 55.30132725584008
1636, 64.49187886697928
1637, 28.558506274475803
1638, 8.060876959146299
1639, 12.940814973712804
1640, 28.642687016752916
1641, 29.07726643860451
1642, 7.978542521126656
1643, -21.50746247367215
1644, -17.057363008366337
1645, 4.591822929402952
1646, 23.925926217687447
1647, 16.972869657079173
1648, -5.129943623197505
1649, -19.715307966378987
1650, -11.588107559299715
##END=



