##NAMES=
##LOCALITY=
##RRUFFID=
##CHEMISTRY=
320, 22.486342659178263
321, 15.566239845835298
322, 0.2410241821762611
323, -14.377952689404992
324, -24.752328210404812
325, -23.1413135744624
326, -9.757372072093858
327, 14.672568525216775
328, 49.52684031998979
329, 65.59946059129106
330, 56.38729540285749
331, 44.781459275365705
332, 43.342925986386035
333, 54.382017191077466
334, 70.99970900540029
335, 90.76559417293356
336, 107.00622352655228
337, 116.98852518257263
338, 106.1717836488915
339, 73.50343150031404
340, 46.57005246047447
341, 40.529586190103146
342, 45.46793520143183
343, 49.67026326607811
344, 51.307918910184526
345, 46.99502198571827
346, 36.61524532888325
347, 20.007222896301755
348, 1.4093379282458045
349, 0.051965051778097404
350, 20.581182611169424
351, 49.54190305328848
352, 76.88094717130662
353, 95.2319358731711
354, 96.2546336178566
355, 85.08660071508166
356, 74.0703540748309
357, 64.22842650116036
358, 58.006644826549746
359, 54.9106661105634
360, 44.13216453588757
361, 22.481361041183845
362, 2.2860389266625134
363, -12.14097243636752
364, -17.985457849299564
365, -10.001568421832417
366, 4.956732196933444
367, 6.90794617749998
368, -2.578938921340523
369, -8.919036485329343
370, -9.64362195310423
371, 4.117318272576085
372, 36.61185978962749
373, 63.345585317350924
374, 67.71994834951693
375, 51.18838490130838
376, 15.888233997453426
377, -23.557984805363958
378, -33.01894715378512
379, -14.131083256721467
380, 16.020818432285523
381, 55.463577850992806
382, 74.16509838671664
383, 62.4894957439883
384, 38.269099889505014
385, 13.578057785267447
386, -3.1809668301011698
387, -3.7331594359275186
388, 4.579120558348222
389, 2.2941499365442724
390, -10.286520505762383
391, -25.033389702804925
392, -41.069506618565356
393, -47.78270576473187
394, -42.139758165794774
395, -29.493868242321696
396, -12.1040840716214
397, -1.400102119663643
398, -12.250920898080949
399, -34.16867738156725
400, -42.19151418799811
401, -37.39715824567065
402, -25.535400194241447
403, -7.654671158334168
404, 3.648538493727756
405, 6.088543716019558
406, 6.096833746520133
407, 6.6098489732794405
408, 15.184085919363497
409, 39.509655151830884
410, 67.19139219332465
411, 78.82459676344843
412, 74.71137758257828
413, 57.111408568252955
414, 38.567046709858914
415, 60.0174548406103
416, 128.57726289346465
417, 210.0293322047546
418, 277.49833974392277
419, 325.7475608311688
420, 351.5210347720749
421, 360.9483969573048
422, 361.3986902388315
423, 360.0761402685912
424, 372.95005182194654
425, 393.6939971812699
426, 394.42129677519733
427, 373.6828344874157
428, 343.32802994891426
429, 306.04024060835764
430, 264.4705701420644
431, 219.68919194980117
432, 175.9520717034502
433, 136.2497548043557
434, 93.00210779131339
435, 45.439814697328984
436, 1.2228713206841348
437, -14.49499579312942
438, -8.90771809914986
439, -10.459732892357351
440, -19.916036919099497
441, -16.86079100288771
442, 2.579331375012771
443, 18.266515218187124
444, 23.428552859859337
445, 44.716570747119476
446, 101.98880472480232
447, 163.00077021033758
448, 193.12670654409158
449, 200.87619457135952
450, 205.0627926002253
451, 205.07525755240204
452, 196.12919275663262
453, 179.54173166528017
454, 167.4658850912947
455, 160.78970488385676
456, 138.81206191127785
457, 95.237647078402
458, 58.683653403119024
459, 51.080868104294495
460, 53.98582279232505
461, 44.89179014038382
462, 27.194629032092053
463, 9.473733817365428
464, -10.102285819757526
465, -33.964641153728735
466, -59.09793570947113
467, -61.268387963675195
468, -39.74698748432456
469, -16.62120555648471
470, 4.249317691985198
471, 17.682698074231666
472, 20.37732002089615
473, 16.596332809474916
474, 9.168086293708257
475, -0.15055842557922006
476, -9.358757362024335
477, -17.491192990484706
478, -21.747045214367972
479, -21.861253290755485
480, -15.965791575054027
481, -3.948478663704009
482, 12.21310865844498
483, 32.77094557737837
484, 47.98351085064678
485, 55.8480139073763
486, 58.14175502186117
487, 55.65675457817815
488, 55.533770741420085
489, 62.31271743450998
490, 61.68235430220193
491, 38.476576065477275
492, 6.696263732152147
493, -8.688091012800214
494, -11.96313045394345
495, -12.166945168501115
496, -9.80205395264602
497, -4.563671370869997
498, 1.9536429295148992
499, -5.135926380782621
500, -27.819802391742996
501, -42.97376221522609
502, -44.03164132872007
503, -32.02328649258561
504, -6.274057215296125
505, 15.712305938201098
506, 18.941505491584394
507, 13.241983847026859
508, 12.356884994389475
509, 14.636520409254445
510, 17.15549634904346
511, 24.11841773546621
512, 48.33788726867715
513, 87.67831368182306
514, 112.36525296063519
515, 122.35246644649123
516, 140.94829669464707
517, 171.70404756572862
518, 197.54740750044039
519, 213.01804915091816
520, 216.58834841907628
521, 207.56221595779607
522, 190.62003022909266
523, 169.12283392999416
524, 139.30493807862877
525, 96.94163747478524
526, 52.102008702700914
527, 27.19605996062819
528, 16.110652465058592
529, 7.866419675850921
530, 4.190768626303907
531, 16.020687476100647
532, 41.681204743617855
533, 57.3998872617085
534, 60.49326045007365
535, 58.078711761467275
536, 51.86287252195325
537, 41.922627802699935
538, 28.479995641248024
539, 21.668767068889792
540, 24.50963404383947
541, 38.45957312322753
542, 65.7781335933505
543, 88.72931656657966
544, 91.91781104302027
545, 88.2589777020221
546, 98.76122964533533
547, 109.7382466084
548, 88.77413971873284
549, 46.05112253877087
550, 23.973254744338192
551, 21.682847955224133
552, 31.318169611953635
553, 52.78834205263047
554, 82.44457268365659
555, 116.65532918667122
556, 116.33078999909776
557, 72.77552072327853
558, 27.79922166984943
559, 0.46648218110021844
560, -8.061755434200677
561, 3.382348301818638
562, 21.34940568784259
563, 34.52222232252825
564, 37.41127504230826
565, 24.096425330322745
566, 1.659151732137616
567, -18.971786664244064
568, -34.84669641545224
569, -37.33032901612751
570, -29.029413506690616
571, -16.694872525173196
572, -2.343967136595893
573, 4.667238149253535
574, 4.487120120920736
575, 2.389053671315196
576, -0.8669405128675862
577, -7.570383953432611
578, -17.8451158413136
579, -21.80754949833863
580, -17.046247289275925
581, -8.29632196597231
582, 3.3820879880950088
583, 20.37391574891808
584, 42.80421933163416
585, 55.82370188278583
586, 49.54436387768328
587, 37.40840027376544
588, 31.479437657633753
589, 28.877663939931153
590, 26.084351191600945
591, 23.387735997208438
592, 21.268978011585205
593, 17.623679096925116
594, 7.989554391433558
595, -2.7876481019120547
596, -4.322849744014093
597, 0.5658233399972232
598, 0.6276857167358685
599, -3.522987238537098
600, -4.7562737401494815
601, -2.2491214873170975
602, 4.280982398229753
603, 14.59706503754387
604, 20.903069433046767
605, 21.23074945997905
606, 11.72199877705134
607, -7.926064778806904
608, -24.870870576791276
609, -35.617119108017505
610, -33.61704458195891
611, -15.576862861005793
612, 0.3527743273134547
613, 4.429636351433146
614, 2.0354535191891046
615, -2.7405219742013287
616, -7.407004211272579
617, -9.729254236064662
618, -6.493385495919938
619, 6.6333266640795046
620, 26.44102184361327
621, 45.65910614042514
622, 60.687607702215246
623, 65.13986532066883
624, 60.12668643101097
625, 48.3853862690994
626, 29.41882361668104
627, 4.5688567854031135
628, -19.631438227776016
629, -15.894065573973421
630, 13.90179468799397
631, 54.66739867178512
632, 98.15383602521433
633, 120.19811627825948
634, 119.5899825361339
635, 108.14014251271146
636, 89.64652898892564
637, 77.73257539347833
638, 74.3964185626428
639, 72.62447051504932
640, 70.15459579307753
641, 60.41681148005955
642, 42.75135942595443
643, 40.998118747302215
644, 60.93163985610772
645, 81.98025265649812
646, 97.03062350633081
647, 91.71179334412045
648, 59.690831765117764
649, 22.46176985020793
650, -5.784310508428462
651, -18.154610781253723
652, -9.716511485024967
653, 9.642315435326964
654, 33.83416387437319
655, 50.08875980117773
656, 48.126587436247064
657, 35.77829921109878
658, 21.022649470332908
659, 8.241635535885507
660, 3.4512246897793375
661, 1.9641741580289818
662, -2.1148209927505377
663, -6.932089719959549
664, -9.404732188839262
665, -9.270057260730027
666, -5.6895457304417505
667, -0.6411166442176182
668, 1.7282125446108694
669, 0.7898441438574082
670, -5.188087061711485
671, -10.337226931156692
672, 0.9254517764366028
673, 20.04292247507874
674, 18.359785622811614
675, 3.413059299431552
676, 3.3162190379771346
677, 15.905698296208357
678, 28.892651485379247
679, 40.177293476168416
680, 51.88763390060558
681, 57.193616821412434
682, 27.78193049186848
683, -24.304312209818818
684, -35.2825978496312
685, -5.866022459540545
686, 31.145218831783495
687, 71.4268791462382
688, 94.41219795006873
689, 96.96659005001857
690, 75.60961799954566
691, 35.196114395443146
692, 9.027678877551807
693, 1.7293899944415898
694, -0.5979467345023295
695, -0.9690257073398243
696, -1.9655992697353213
697, -3.382333615803873
698, 0.8580973291791452
699, 11.32585260554697
700, 18.362546566446326
701, 19.90636822700435
702, 16.538321657697452
703, 8.66394308260169
704, -0.3276938531707856
705, -9.20407508376411
706, -3.8632947431233333
707, 17.72614694820186
708, 31.47486154779108
709, 31.49959482295162
710, 24.680738309034496
711, 14.35056783955406
712, 18.41812001961989
713, 39.98646018479485
714, 53.80130488107534
715, 53.75576432651178
716, 48.359816910384325
717, 39.712675261758704
718, 22.462054429443015
719, -0.15531562274736643
720, 3.0642111350643972
721, 38.933650145625506
722, 58.5105140860087
723, 49.11316181670554
724, 40.98016233063754
725, 42.5995347290318
726, 42.521439866866785
727, 38.024711399615626
728, 39.88068118031151
729, 49.58439059018747
730, 43.53624133017729
731, 16.52988695183012
732, -4.1764128894083115
733, -12.994857850302651
734, -11.938632772484198
735, -1.7759878324704914
736, 12.0628503322896
737, 26.35488127908684
738, 23.5638978168663
739, 1.5623371647143358
740, -7.620075842494771
741, 1.153199622505781
742, -0.6912941378541291
743, -18.323679725215698
744, -24.147001394749168
745, -13.148803117866919
746, -3.2497724923305213
747, 2.640978698764229
748, 12.485253069815371
749, 25.393245741819555
750, 21.419297372949586
751, -0.5391073392929684
752, -13.86592489436407
753, -13.629781330397236
754, 4.414739868980178
755, 37.9351451320199
756, 52.56473372897926
757, 45.679928499776
758, 40.923701160183555
759, 40.09352225893235
760, 29.58224056160543
761, 10.382612915227583
762, 0.6673124569097126
763, -0.40953426960004435
764, -4.882787912620188
765, -11.549338992244884
766, -6.303489516714762
767, 10.047376212358358
768, 26.143869869121772
769, 39.56835304068227
770, 50.34657095714283
771, 57.05217091918166
772, 54.765047003837026
773, 44.40557690010428
774, 30.146915088280366
775, 14.677453352051089
776, 6.22350016632663
777, 3.134887742846331
778, 1.9963600585742824
779, 0.8494958042811049
780, -4.302948435655708
781, -10.763046840427705
782, -12.248345812398838
783, -6.479568967864907
784, 11.19273793193679
785, 34.09387359241373
786, 47.23541281803227
787, 52.737119606701526
788, 53.910256221537566
789, 45.844697576671024
790, 22.370729780635884
791, 2.6371232749370392
792, 2.97066026162247
793, 19.04545181816502
794, 48.37982926390032
795, 73.90827685159638
796, 83.56068719336508
797, 72.70376918133297
798, 38.637542712638606
799, 8.727248011480697
800, -0.11170027336993371
801, 11.045726372189165
802, 42.188639634887295
803, 66.54354080191479
804, 73.35859394144791
805, 68.68620592140906
806, 55.164846347446655
807, 38.21463100507572
808, 20.303716310354503
809, 11.428293833258067
810, 12.932771209727434
811, 25.98092748025556
812, 49.47116536059002
813, 63.475709328669836
814, 66.3650164039882
815, 66.3447205672328
816, 63.76706919040589
817, 54.850992467338074
818, 43.19963795282274
819, 43.41681808036083
820, 49.067546041031164
821, 37.07390208126708
822, 11.599258052354344
823, -12.21600038122233
824, -26.694226004542543
825, -14.293381581508584
826, 13.736724371491619
827, 38.75956311787195
828, 55.540608535027786
829, 59.374066753836814
830, 46.70614688149817
831, 13.879406951926285
832, -11.221452630337808
833, -9.461454644979312
834, -2.514919988849215
835, -3.975041153598795
836, -12.808817840354095
837, -28.13024142638551
838, -24.849468305067603
839, 6.685568832020181
840, 42.86001675129046
841, 73.4108952109118
842, 91.3394839259563
843, 94.93218654592329
844, 85.10367216424947
845, 65.29624220797086
846, 53.66465570100172
847, 49.07659249900098
848, 34.749597239840114
849, 12.379391504446176
850, -4.953808889433276
851, -16.760215035793408
852, -20.912275360157764
853, -19.12027063775713
854, -14.094475268643691
855, -6.8304698086722055
856, 1.2380209877046582
857, 11.845429353185864
858, 27.126404946901857
859, 38.4090351589839
860, 39.4296565366285
861, 34.68661552515641
862, 27.187979313640426
863, 22.19054178073111
864, 21.798529540129493
865, 18.952266549443266
866, 11.95833091057193
867, 11.303443257316758
868, 17.489181484052096
869, 15.123941176255357
870, 7.664033120316162
871, 19.13474672983557
872, 47.31914207758473
873, 64.38116490579887
874, 67.87520446191593
875, 57.90834399395044
876, 34.25955238100778
877, -3.538233931210925
878, -32.66682720197696
879, -21.169104772905484
880, 5.148114268771678
881, 19.62278519906613
882, 27.250651265115266
883, 32.01605254568858
884, 25.822143993899772
885, 5.778654858261689
886, 2.8127315444580745
887, 26.055324044715235
888, 49.236321171318195
889, 62.66882757908388
890, 73.70461935057756
891, 81.56796808474428
892, 75.25740761230372
893, 54.49438452684353
894, 23.40130038879761
895, -6.846629162769204
896, -18.583168095298788
897, -18.105214189229628
898, -15.806384626369436
899, -10.958964088920766
900, -2.2900856078367724
901, 3.0776927673032333
902, -0.29001031847201375
903, 7.752921736698227
904, 37.444518404077826
905, 52.010932897932435
906, 39.896428171100524
907, 24.959280412740554
908, 13.783042177501557
909, 9.296332374863596
910, 13.273632011732843
911, 34.34248528365788
912, 59.492572998798096
913, 52.51708667610001
914, 25.442300652342055
915, 6.3564772364979945
916, -1.871302973827369
917, 1.8876669848996244
918, 7.533666320385237
919, 6.754417800720148
920, 4.208179159391875
921, 2.469701897946834
922, 4.2086172208764765
923, 11.010534317651036
924, 26.771052970622804
925, 47.405593814324675
926, 50.67409489378588
927, 39.907175343682866
928, 41.17511103592642
929, 51.214207617085776
930, 55.76646750762029
931, 53.163589279631196
932, 41.76979034162741
933, 24.557568273728975
934, 4.772932604993002
935, -4.935170471460879
936, 1.680775435396754
937, 7.931926809879769
938, 7.064299126420337
939, -1.1322261977511516
940, -13.284292183143407
941, -4.450466321862223
942, 21.18779532559256
943, 27.56224011013819
944, 17.830552755439385
945, 8.438933340123185
946, 3.2881610214544708
947, 5.466862530620347
948, 13.63038417813732
949, 25.45256124899879
950, 26.068827638790026
951, 8.172832126465437
952, -2.3235287978222914
953, 2.7108825787581736
954, 22.781754826061842
955, 53.15472645005684
956, 59.42912545556737
957, 46.71918317602922
958, 43.60396507143105
959, 48.647312073457215
960, 55.46592082269672
961, 61.01497066089814
962, 61.88679168949329
963, 47.72159074487445
964, 12.627375414145718
965, -18.629954798766448
966, -38.60698542294722
967, -40.57205507044
968, -24.055738762953297
969, 4.621246680977492
970, 40.44066467975881
971, 62.03573325379239
972, 66.74349394992623
973, 52.35204762450849
974, 30.087574662105
975, 12.489248478327681
976, 5.173290591235855
977, 9.415635329201905
978, 11.447782974891197
979, 5.62351586927889
980, -1.8520986455596358
981, -9.27163065741206
982, -12.004738475388876
983, -9.636649467153802
984, -1.833934894018057
985, 2.531914485620291
986, -11.071721858788806
987, -21.356457143670923
988, -10.190762179930061
989, 3.3673576022492853
990, 11.804254627322734
991, 29.29562001463819
992, 53.80164160958884
993, 58.086530337355725
994, 46.94657995113357
995, 49.893041768712465
996, 56.20262343642389
997, 41.76117790879198
998, 24.415677864363715
999, 25.22239258566333
1000, 22.379156589207014
1001, 6.858801177636451
1002, 6.468762678099665
1003, 25.851251115760533
1004, 38.28292638812036
1005, 37.36057658636946
1006, 16.967654005043187
1007, -10.005873254830476
1008, -23.580259959247087
1009, -15.516659636503391
1010, 23.909082525432495
1011, 68.0685422586821
1012, 95.76645296272
1013, 85.55067304160639
1014, 39.96498659008921
1015, 14.844013379558419
1016, 17.261245606957345
1017, 35.527920263119995
1018, 57.27544508695064
1019, 65.3594543289937
1020, 57.785195303718865
1021, 33.70396193425495
1022, 16.20636702696993
1023, 16.45449341681433
1024, 16.49942674214344
1025, 10.237763595626348
1026, 0.21137892730985186
1027, -10.879662643005759
1028, -15.107283156990889
1029, -8.794489201061879
1030, 13.583920304453386
1031, 36.74220981492999
1032, 47.67658536500858
1033, 56.385680943184525
1034, 66.04447737562987
1035, 73.00465809926209
1036, 76.50307979260015
1037, 76.32397998331362
1038, 71.60715860995788
1039, 60.8167581223106
1040, 49.90331415830315
1041, 44.38745302046027
1042, 45.733289631481966
1043, 51.99588181062154
1044, 38.96869771662023
1045, 8.90240947410257
1046, -2.9087227923664614
1047, -1.8852213578174997
1048, -5.607558311157845
1049, -8.18815499743505
1050, -2.726530707321217
1051, -5.757260880784088
1052, -24.326833799443193
1053, -33.80831169081284
1054, -30.57352468026329
1055, -27.049831793715384
1056, -25.59714509436435
1057, -28.61418497289924
1058, -27.47577950946561
1059, -11.76200483982393
1060, 2.717140391715475
1061, 8.482379079811835
1062, 15.649954458863249
1063, 25.17630425551215
1064, 26.327121487702243
1065, 29.87525157983964
1066, 64.67764057204386
1067, 112.8647830335376
1068, 142.60058276984455
1069, 166.48976912142825
1070, 190.18950346528254
1071, 202.49456383103825
1072, 204.24324786311536
1073, 211.8646933777236
1074, 220.97764703193843
1075, 218.33449711913
1076, 218.01829631720648
1077, 233.44799568258532
1078, 237.87000539121982
1079, 219.736516097375
1080, 185.92893229537003
1081, 141.58551637921482
1082, 99.67539568974462
1083, 64.23785798049175
1084, 46.60403873472569
1085, 29.811197181746138
1086, 1.9500025596516934
1087, -11.623320237573353
1088, -5.688086205707805
1089, -1.9203249509464513
1090, -1.774593293583166
1091, -0.12123778879231395
1092, -3.9417389738846396
1093, -22.42084376202274
1094, -24.789028679569128
1095, 3.09569283061046
1096, 24.20485284163533
1097, 29.909130719767745
1098, 28.7747393307518
1099, 16.648902000592898
1100, -15.962130007801534
1101, -39.60248116868479
1102, -32.26780669480013
1103, -17.505692802606063
1104, -3.4862236282633603
1105, 7.774621527991258
1106, 13.478548576824323
1107, 6.901600931891153
1108, -0.47071251149463933
1109, 4.558016340664835
1110, 2.9061840867534556
1111, -11.488816736896297
1112, -13.277906477646866
1113, -2.1957745303880074
1114, 4.054016027129364
1115, 8.443120051313599
1116, 17.182289989869787
1117, 19.106649892462883
1118, 10.418264059811918
1119, 23.519873942606864
1120, 54.69744786063711
1121, 55.9353945103785
1122, 35.006451939450926
1123, 15.923225032887785
1124, -2.3439540021781795
1125, -22.13629152114845
1126, -18.106156580158313
1127, 10.842960621374004
1128, 26.98220436218253
1129, 28.684229865113593
1130, 26.14655582807518
1131, 33.39428379306173
1132, 59.1790970234988
1133, 74.21918569256741
1134, 73.58332061137844
1135, 81.48437735273092
1136, 90.70904665714079
1137, 77.11388271577653
1138, 68.50926383783644
1139, 88.47764688218922
1140, 88.47383271268973
1141, 59.22109876131981
1142, 50.884137161715444
1143, 56.544117643103164
1144, 43.318886043857674
1145, 22.491459215798386
1146, 8.007178529331213
1147, 4.59894439713662
1148, 13.78830578033103
1149, 34.202439236655664
1150, 52.88837438546034
1151, 45.703796090083415
1152, 23.729955144758605
1153, -1.6555147373755972
1154, -9.458518549578002
1155, 1.7959793589279798
1156, 9.41970153559214
1157, 8.301874032858905
1158, -5.012545353933092
1159, -13.306755969831102
1160, -5.732825513020543
1161, 0.6296978039008536
1162, 1.9725976809031636
1163, 1.9757465755601515
1164, 0.9173357044601289
1165, -1.337867515828293
1166, 3.7252002270706726
1167, 19.27497349109035
1168, 20.33536625911711
1169, 5.642118271257459
1170, -9.495869824100737
1171, -17.49620590358154
1172, -10.28472262172545
1173, -4.445254210330859
1174, -6.111066135777037
1175, -5.134397598319083
1176, -1.7744251404355964
1177, -1.2597649413455656
1178, 5.666726018644113
1179, 27.09139850477368
1180, 39.69864374767167
1181, 36.16544936899027
1182, 19.825299783053197
1183, 2.221120323325522
1184, 3.1163504546020704
1185, 3.6439371979513453
1186, -5.769361252059753
1187, -0.6104992616092204
1188, 14.025149063827484
1189, 1.0835730367034557
1190, -15.221863832470262
1191, -6.164227605121596
1192, -1.1746290693945411
1193, -8.659262426113855
1194, -7.1258086324733085
1195, -0.13839529633969505
1196, -1.4331539284712562
1197, -2.768888946206971
1198, 1.9683801602259337
1199, 12.782508681641048
1200, 29.7000318325463
1201, 48.35378637989197
1202, 62.38965466695481
1203, 64.52168306420481
1204, 59.08106015727026
1205, 50.76099903912018
1206, 54.871214960517136
1207, 65.15303493336069
1208, 65.01343024701964
1209, 56.51287688582306
1210, 41.732387856617606
1211, 24.59819876082838
1212, 12.573592665171418
1213, 16.362170012791466
1214, 19.22985296704519
1215, 2.926679623234122
1216, 0.023867303360930237
1217, 16.33039190605905
1218, 27.85711997136059
1219, 31.01040218383605
1220, 24.41105746370158
1221, 3.1552368024231328
1222, -29.073254240774077
1223, -37.687075263447696
1224, -25.495283484288848
1225, -10.234008779052601
1226, -4.00062284699834
1227, -12.953659453063665
1228, -13.395924580692736
1229, 0.8467927339588641
1230, 31.306673760722333
1231, 55.30260422691936
1232, 51.2419097296015
1233, 32.47203146806169
1234, 8.662714255365245
1235, 0.8246685748599702
1236, 3.097291043885889
1237, 5.999603772583214
1238, 2.9823996273698867
1239, -3.778747046844728
1240, 12.091999954200219
1241, 44.648322308384195
1242, 73.44480194054995
1243, 87.20326676618333
1244, 81.62592609769399
1245, 66.6149350361884
1246, 51.371640753560314
1247, 51.065119500833134
1248, 54.72796970529453
1249, 53.57586927234206
1250, 36.376414118380126
1251, 19.519089305559646
1252, 37.722461486748216
1253, 69.94453218509989
1254, 93.24093215707308
1255, 100.97583234794001
1256, 93.37463928487523
1257, 75.59625429627704
1258, 66.76157002517175
1259, 79.36506413084408
1260, 72.6087957040827
1261, 44.42406296278841
1262, 22.755151154206033
1263, 14.876006038129162
1264, 21.80973064702266
1265, 30.35409131076176
1266, 29.74171103665958
1267, 5.720931167635172
1268, -8.438539667229634
1269, 17.166431353773078
1270, 49.375561953236684
1271, 69.59395167707771
1272, 58.844648531677194
1273, 30.514166231302625
1274, 1.8102996193538274
1275, -2.0682015178363145
1276, 19.05241815289719
1277, 42.897638835368525
1278, 54.15145392162958
1279, 44.01306794425727
1280, 49.837273469039246
1281, 70.43580506422768
1282, 64.9577606342209
1283, 41.29171397185746
1284, 11.182533543486898
1285, -10.487621485032832
1286, -16.40964836776493
1287, 9.200351257951297
1288, 26.569648686067012
1289, 1.6765428000098836
1290, -9.370104717861068
1291, -2.126197176837195
1292, -1.315949820042988
1293, 6.749429833742397
1294, 30.293384398893977
1295, 29.81938330018056
1296, 11.53670991349918
1297, 13.108440283521304
1298, 19.120880796445817
1299, 19.034929829217617
1300, 13.961016468995695
1301, 4.977767440486787
1302, -5.513694758137717
1303, -10.115612333712306
1304, -5.526699460537202
1305, 3.049316661969897
1306, 10.73457045768646
1307, 9.113884946022154
1308, -3.880116564333548
1309, -23.0925524979657
1310, -21.139891780126163
1311, -12.372366510915526
1312, -18.070987250607686
1313, -9.847686547584999
1314, 13.564003338648945
1315, 17.84622071504964
1316, 10.852076611886332
1317, 3.6653440132204196
1318, 0.8421411995950621
1319, 5.65952566996657
1320, 24.817990234690114
1321, 38.90901799501444
1322, 35.02886866903464
1323, 18.410913355417506
1324, 8.390949538770656
1325, 34.733726036544795
1326, 60.18568046695236
1327, 64.12487026990766
1328, 38.39138784798615
1329, 2.3125275478014373
1330, -15.834865516744685
1331, -10.03161817158707
1332, 9.387536804327283
1333, -0.9807307021828819
1334, -19.453936972905467
1335, -24.534963891262123
1336, -15.893960696554132
1337, 5.4101302454637334
1338, 36.212161717794515
1339, 45.17876865765629
1340, 26.628119705643257
1341, 46.88273524022043
1342, 82.71469377527774
1343, 91.64357481292245
1344, 84.92490948830073
1345, 64.40726943705431
1346, 22.132589087169436
1347, -8.142184904648275
1348, -5.61591024754307
1349, -1.1705429869507498
1350, -1.4855482608454622
1351, -6.6190367323906685
1352, -10.178982962959708
1353, -9.25195176636953
1354, -4.907092548531182
1355, 3.3917902117218546
1356, 16.01906960965971
1357, 24.847629668134687
1358, 30.491578701196886
1359, 46.11932904848891
1360, 59.5075813134772
1361, 63.3926754066415
1362, 64.54473076375962
1363, 60.005068648093584
1364, 44.37677793363855
1365, 28.821950523716623
1366, 17.122473808559334
1367, 10.106876004092555
1368, 8.937983838863147
1369, 13.300732430458993
1370, 10.7562000142334
1371, 3.901310278230085
1372, -1.544778227353163
1373, -2.531928759778566
1374, 4.458388110950182
1375, 27.597561519117335
1376, 43.92072384831954
1377, 39.03936745042756
1378, 45.724984791873794
1379, 56.564796288229445
1380, 48.21958821083081
1381, 35.64658163362856
1382, 21.907649253035743
1383, -3.4476468295533778
1384, -15.01361413201721
1385, 2.209576729852415
1386, 15.906981025807
1387, 17.683637272277338
1388, 5.974389442106258
1389, 2.00675401839635
1390, 7.624353152556068
1391, 6.073986922205222
1392, 4.322784518509252
1393, 5.886303737559501
1394, -5.027857411210789
1395, -13.4780749617521
1396, 2.191597961469597
1397, 12.895673503370745
1398, 10.864654135699311
1399, 1.8906803587815375
1400, 6.410442390123535
1401, 28.114199289967473
1402, 29.004316368191212
1403, 20.632966674123054
1404, 18.413933454497055
1405, 5.959819346910081
1406, -4.815579159559093
1407, 12.538976680317319
1408, 14.574118782830737
1409, -1.8842220971691859
1410, 15.29926363429422
1411, 31.670301899518563
1412, 24.380588670637735
1413, 27.434528907027016
1414, 27.50779229206546
1415, 3.042040552848448
1416, -4.207104808845543
1417, 1.1232733821534566
1418, -14.988177325478318
1419, -17.765777313444232
1420, -0.022639020779024577
1421, 0.5585659064181527
1422, -8.999704489694523
1423, -17.527740206025555
1424, -3.1352929297927403
1425, 21.497213165415815
1426, 32.10485839012381
1427, 30.092081792571662
1428, 16.76682452031673
1429, -5.0926612096673125
1430, -10.09457899455083
1431, 3.822112902783374
1432, 6.077160945280411
1433, 1.180790079718463
1434, -6.151358038292528
1435, -15.720410214095864
1436, -10.097469569484929
1437, 27.577857467995273
1438, 51.95298363628899
1439, 57.595728083877475
1440, 54.6711852096596
1441, 34.95889951873687
1442, 11.607474395682402
1443, 28.698241326308562
1444, 47.27473804029523
1445, 46.174394995047805
1446, 46.64276861789858
1447, 44.36281671564848
1448, 37.0334538643192
1449, 42.86468478410734
1450, 46.24516397831121
1451, 27.554296934688864
1452, 18.956981719092255
1453, 20.185926592255782
1454, 11.761275854618361
1455, 3.6587503501041283
1456, 0.20277521497882844
1457, 5.783875576543323
1458, 21.24561554095999
1459, 40.98888258707393
1460, 47.46725962781966
1461, 29.766495514240887
1462, -6.50474120515355
1463, -4.365832289540776
1464, 20.126162627884696
1465, 44.896361159483604
1466, 54.374707356383624
1467, 44.42608323917375
1468, 17.449094048825827
1469, 19.138946032065178
1470, 41.38794138768844
1471, 49.200180595164056
1472, 53.41964073859435
1473, 51.175789669193364
1474, 28.827069682929505
1475, 22.932768025561927
1476, 36.560313777158626
1477, 24.046063269956903
1478, 11.710259140219023
1479, 10.387176864453977
1480, -2.8010798146160596
1481, -12.586117119063601
1482, -7.96411938575875
1483, 7.332317524234895
1484, 34.979132718242
1485, 68.82815784767172
1486, 73.9130707210652
1487, 55.88704204209171
1488, 28.646856761348317
1489, 3.8306072106934153
1490, -10.513380564435465
1491, -10.596425176610865
1492, -13.762257166773452
1493, -18.45688814048026
1494, -14.442753580014141
1495, 10.125568255622056
1496, 38.486299015513396
1497, 29.26185353247456
1498, 7.675314118386268
1499, -9.206362448208893
1500, -7.502771806165583
1501, 2.3449517368817396
1502, 12.884370082539135
1503, 14.298914595739006
1504, 21.69416143692615
1505, 37.29475850593826
1506, 53.21229043864696
1507, 36.661798065383664
1508, -7.443057761119235
1509, -17.202893194270473
1510, -1.7453177551369663
1511, 26.24764228483491
1512, 41.69530852781645
1513, 38.016029467510634
1514, 20.823029703274187
1515, 19.50624540973058
1516, 15.468857615044726
1517, 0.49270145258105913
1518, -6.392157938224955
1519, -5.996924378898257
1520, -0.41516274721561786
1521, 7.61624444770041
1522, 23.863081991119543
1523, 43.09130718987217
1524, 31.93339350300812
1525, 20.855715867250183
1526, 23.328384171941252
1527, -4.66575151906909
1528, -18.768331449176912
1529, 1.4643503921997763
1530, 0.8048931470148091
1531, 5.156279495271519
1532, 26.463491660217187
1533, 16.01069018020189
1534, 0.5160320724589837
1535, 0.5134854287871349
1536, 8.03153899075096
1537, 6.9608580959557
1538, -7.106714875852049
1539, -11.686122076970605
1540, -7.591389131516735
1541, 3.9945375161159973
1542, 24.544563522646058
1543, 29.17078310202487
1544, 11.846215036524882
1545, 3.851979419563577
1546, 3.1788855874056026
1547, 4.264983054997174
1548, -0.8995691717718728
1549, -0.9916097620080109
1550, 13.519733427719075
1551, 51.81335914648389
1552, 73.23464349394271
1553, 61.956878056831556
1554, 27.37927741772819
1555, 4.313178455031448
1556, 8.310707614593412
1557, 37.67277637044572
1558, 26.568161701769895
1559, -19.59359584239155
1560, -41.04509021211561
1561, -34.59657224245257
1562, -11.977292732576643
1563, 4.824253422631955
1564, 16.28205625598457
1565, 20.00420351158118
1566, 15.033235555594729
1567, 17.16550542820096
1568, 11.31153211828132
1569, -15.597177710747928
1570, 10.333613442439855
1571, 60.578627635251905
1572, 98.03273630893727
1573, 143.00864732526225
1574, 175.74347719412253
1575, 186.4917628290168
1576, 217.15527270844996
1577, 240.23002290496697
1578, 238.55782258546787
1579, 226.11063459340494
1580, 218.67270741225184
1581, 218.91929059201993
1582, 212.3063742778777
1583, 170.92425450094652
1584, 104.34025323127298
1585, 57.22557771538595
1586, 47.83144641202034
1587, 50.335569706170645
1588, 17.062480070652782
1589, -19.542567533791043
1590, -37.78362212055663
1591, -22.66784879269653
1592, -4.377744792601334
1593, -0.6206868104632122
1594, -14.98867341112873
1595, -11.528644540943787
1596, 8.514991523755725
1597, 30.662635719830632
1598, 14.790851636739262
1599, 3.2263528523162677
1600, 8.954239658884944
1601, 13.39163856722189
1602, 19.246310587737753
1603, 20.816417376802747
1604, 8.612151543266918
1605, 4.893341535086165
1606, 4.7567933527216155
1607, 1.6019485117731165
1608, 19.634718000143494
1609, 36.28125162708375
1610, 34.53439423036389
1611, 25.396048305853583
1612, 0.12239815488646855
1613, -27.29045591051863
1614, -13.623493932013389
1615, 6.020399913462825
1616, 19.354890290814637
1617, 23.513569146300142
1618, 9.06443789159448
1619, -0.8056281067638338
1620, 13.315251598048235
1621, 18.208618589242178
1622, 12.551555646312863
1623, 1.1882971019949764
1624, -6.94650576822778
1625, 4.545764360757403
1626, 26.766073481052445
1627, 24.561526340681212
1628, 14.522534492859904
1629, 5.327559223124354
1630, 2.4450865527387577
1631, 5.86304799822301
1632, 13.380918291847138
1633, 19.02729018849959
1634, 11.234733725993465
1635, 5.941221918692463
1636, 3.494347735883821
1637, -11.021003349227612
1638, -3.3551990377941365
1639, 17.505287447971114
1640, 26.699777745871415
1641, 28.431449466305367
1642, 12.441762806605311
1643, -15.832591443265756
1644, -15.027348741126389
1645, -9.934998377524607
1646, -9.993557248868001
1647, -11.247656445101256
1648, -12.710501065807875
1649, -6.5400625293141275
1650, 9.246236602461977
##END=



