##NAMES=
##LOCALITY=
##RRUFFID=
##CHEMISTRY=
320, 0.5949620834803682
321, -7.334848528103521
322, -12.655987919396921
323, -14.966051031055486
324, -15.067960609663714
325, -13.974424109454503
326, -11.181965482231135
327, -4.820804872678309
328, 5.080956659658568
329, 11.03035034436607
330, 11.088902159066492
331, 8.585001507469315
332, 5.3450256934761455
333, 2.8640984542521437
334, 2.109801277175393
335, 4.637466699676679
336, 15.182455945044694
337, 31.136898247207228
338, 37.61633912224943
339, 32.456138855229256
340, 23.19108104172119
341, 12.702777329272067
342, 5.620306803068161
343, 3.999322784285596
344, 7.768862252900362
345, 17.474911759416955
346, 30.38954590626281
347, 38.86756592315078
348, 41.74844726417314
349, 35.40711175469187
350, 19.278097980668917
351, 6.055059149477529
352, 2.8843476254805864
353, 3.208109336155303
354, -0.006934768231076305
355, -4.33240474532613
356, -3.588728971094497
357, 1.5341701796332927
358, 6.2281593860661815
359, 9.561264831152585
360, 11.023525335311206
361, 10.448985659828395
362, 7.1070897071040235
363, 0.5388370589998885
364, -4.279256103203807
365, -1.090559831612154
366, 7.3251778233316145
367, 12.309236362772026
368, 13.174979881532636
369, 8.942808922563017
370, 0.12795770979482768
371, -2.711259734073792
372, 3.6862581208488336
373, 11.059884197090469
374, 12.906028596285978
375, 11.331910773842537
376, 9.436285906234843
377, 7.283359227220899
378, 5.70878597756473
379, 5.8659936174126415
380, 15.652850155091983
381, 34.4026386237756
382, 40.021836835627255
383, 25.05719462556135
384, 7.24470409829064
385, -0.6819958595960998
386, -3.3274207863587435
387, -6.341037213202981
388, -7.600710526970943
389, -0.441147969123449
390, 12.867907554207704
391, 13.755527087349947
392, 0.5027059612493758
393, -11.999017717607785
394, -20.39291010485067
395, -26.01550764773947
396, -29.726810123873292
397, -31.841271808393685
398, -32.500229192777624
399, -30.761200019553144
400, -24.088534731001346
401, -13.14151625411705
402, -3.2226178771416016
403, 4.995341283284688
404, 3.689739041887151
405, -8.867407015003664
406, -16.081309231261002
407, -10.222312325186067
408, 4.704533610558428
409, 26.016760394586527
410, 54.73044213098365
411, 91.71736429583052
412, 126.66723141397688
413, 143.7393519048219
414, 146.5480941925107
415, 181.07240985508724
416, 236.516220467106
417, 286.3004900226606
418, 321.4264897254725
419, 343.96793762375
420, 355.2141786552356
421, 361.5988854090083
422, 370.85661401816833
423, 381.17676409217347
424, 388.5016994438665
425, 391.3797207354055
426, 384.5514750234288
427, 366.98846226733804
428, 334.92964103315444
429, 288.6522615415497
430, 249.99297213750924
431, 227.38547090118573
432, 204.88514260367265
433, 171.28816197351625
434, 130.14217477308284
435, 86.16205358393108
436, 51.36033244305327
437, 30.262774537177393
438, 19.63076504921355
439, 12.206684546255019
440, 6.347115077887793
441, -0.2155713505562744
442, -8.409482968428165
443, -17.122246696581897
444, -26.353664044198013
445, -23.176212272655903
446, 2.1296715694479644
447, 36.45981155968457
448, 60.08342401821665
449, 74.90577582948481
450, 85.21552055970278
451, 88.78438240899231
452, 76.66323006837956
453, 50.66331127927333
454, 29.050987468677704
455, 18.214066978922347
456, 17.479480889395745
457, 26.752538280421504
458, 36.29279985231551
459, 41.6163239164498
460, 37.44971273434294
461, 18.60385021957154
462, -4.203945556767394
463, -12.901117557872567
464, -10.848897446204319
465, -5.964224789357104
466, 0.8902143147515744
467, 6.264571381972019
468, 8.519978914111562
469, -1.404068643590108
470, -24.553285187591428
471, -36.2767852854231
472, -27.122466407286993
473, -15.481220829289668
474, -12.996003315668531
475, -15.522310041097626
476, -18.844541030812252
477, -20.869299275788762
478, -17.153554106760566
479, -8.269515012372722
480, 3.3703412389177174
481, 17.810023359815204
482, 31.90999154810561
483, 43.01995867687401
484, 49.13327008118631
485, 50.11444283628589
486, 53.315199048294744
487, 61.566777351031305
488, 67.88798184096777
489, 67.84034425628943
490, 62.81246219855075
491, 54.27587949572626
492, 45.32654605405423
493, 41.336056582385936
494, 38.544237867996344
495, 26.387481408823987
496, 6.571403216267754
497, -10.179726337511056
498, -23.298519168381972
499, -26.2618196271369
500, -18.52872311005467
501, -9.458158445057052
502, -1.4893221217143946
503, 2.3073067549676125
504, 0.4116609251959744
505, -2.4730015957929936
506, -2.8307546248779545
507, 6.151958182248563
508, 34.031311161482336
509, 70.57447120884626
510, 86.69469669403588
511, 88.8531423123668
512, 98.49658429609462
513, 126.28930698412387
514, 159.43750987710337
515, 196.3643660239777
516, 227.97327412695904
517, 251.82203053465855
518, 260.16342844444443
519, 250.97682012576843
520, 237.93231456457488
521, 227.56070148463095
522, 223.72902863439595
523, 229.21427499100446
524, 233.35747906560664
525, 224.20041216560367
526, 210.3721338382593
527, 206.61808331865723
528, 207.35932057554055
529, 197.89205674535606
530, 181.29945414128906
531, 171.73664142295365
532, 168.6681495740886
533, 161.51872495980933
534, 149.58922174916188
535, 141.53087679008877
536, 138.41005278802822
537, 123.93729613849882
538, 92.83271826218152
539, 61.32046342281592
540, 43.786185706230754
541, 41.56533266484166
542, 56.71468551228645
543, 81.96125060592021
544, 101.89314292506879
545, 114.80522017770545
546, 117.93636821894415
547, 113.1639822742236
548, 104.93074295179395
549, 96.38192118947518
550, 97.27053333564072
551, 105.87243953318466
552, 110.43558673852567
553, 109.68098725475102
554, 105.22588658766472
555, 96.61079993006206
556, 75.29403758713488
557, 39.67617961862834
558, 8.766621669185952
559, -14.528626692909711
560, -25.03740265023498
561, -19.822965474819284
562, -7.311516995245256
563, 7.021408776892713
564, 18.4485326191475
565, 19.621277711685252
566, 12.638896526231747
567, 0.6945342396420529
568, -10.846673004989043
569, -12.165676653233277
570, -6.507212568040359
571, -3.0977857596571994
572, -2.645769536944954
573, -6.857200033683512
574, -14.301572679328729
575, -14.898584993594795
576, -7.97471553955711
577, 0.5714458171537444
578, 9.739652147057313
579, 13.923364459661116
580, 11.752397939209459
581, 6.970454644559595
582, 1.1781621188692952
583, 1.188591255040592
584, 10.219629790162799
585, 13.815549854493383
586, 2.4304064658322204
587, -9.609940586668472
588, -10.872603426882051
589, -5.788530275784979
590, 0.8926241061412838
591, 5.73446243221224
592, 2.0148428769066413
593, -6.472170305116379
594, -12.7885084047889
595, -14.9280167117372
596, -6.573764641169419
597, 9.350023684788539
598, 18.871771328275827
599, 20.16494027352155
600, 10.72472605823259
601, -6.382397845473406
602, -11.23427058922698
603, -3.17538249529116
604, -0.5947564106131722
605, -6.36049069819137
606, -8.005266342926461
607, -2.4755013553599383
608, 2.266057932221429
609, 3.841282368965949
610, 8.595034436372316
611, 18.686987395220513
612, 19.850353961953715
613, 4.090265514322709
614, -8.127187671118463
615, -3.650433154896291
616, 8.229933588722815
617, 19.839550339544076
618, 29.035839409696564
619, 34.28489460758101
620, 37.192032868460046
621, 40.10159289116882
622, 42.232104532520225
623, 42.139127012575045
624, 38.39325096658331
625, 27.905451060226824
626, 11.35372625484024
627, -8.005425171550996
628, -24.661898502240092
629, -16.35827288530345
630, 13.516441535648482
631, 43.836429760908686
632, 67.29538750467418
633, 67.1148972259034
634, 44.97303035532059
635, 24.046573219667607
636, 8.438304118983524
637, 1.0186994344649065
638, 1.4699551041098857
639, 9.98223489737802
640, 25.635851047532924
641, 25.94502548805167
642, 6.834218959307691
643, 2.9435420119248192
644, 24.27189133929187
645, 43.23422991015241
646, 49.0502026829281
647, 48.86119101235499
648, 45.94076985850279
649, 35.667374972483685
650, 15.685795081369633
651, 3.5486556390274018
652, 8.201033048556837
653, 13.622058616601407
654, 6.696537663011441
655, -2.5922390697478477
656, -7.063357506514876
657, -9.108363614379414
658, -10.912665975344225
659, -10.050981451430289
660, -3.34900653833256
661, 7.775901321653691
662, 21.582641425421116
663, 32.14857184311677
664, 31.50681665447337
665, 21.93778373435316
666, 7.612626547614127
667, -6.3804985281353765
668, -13.038541022156096
669, -11.861862732886493
670, -0.6496379277950837
671, 16.37551449531884
672, 25.902223976367623
673, 26.566472626486757
674, 16.33089237435979
675, 0.681626956303262
676, -3.342520550583231
677, 0.9124483054979464
678, 0.1597702612075409
679, -2.940625359215119
680, 5.395710755166874
681, 23.07288849885981
682, 32.482546688432194
683, 33.648362184854705
684, 34.59450667101464
685, 35.85672312113002
686, 35.45025394447566
687, 33.23511637476804
688, 29.84306616900176
689, 25.947237184070218
690, 24.857126142640936
691, 26.026204537658487
692, 22.867479401129003
693, 15.123828852759743
694, 8.588343136709227
695, 5.185591339251914
696, 4.560012176933014
697, 5.753702316579165
698, 1.4349377897360682
699, -8.172556932353928
700, -11.457709595489177
701, -7.03362867241367
702, -3.9514748476071873
703, -3.1311033102988404
704, 4.817976984610141
705, 21.034886419326085
706, 25.799789227083693
707, 16.156900288890938
708, 14.31251533748582
709, 24.75472012406908
710, 37.22021604171823
711, 48.968818645210376
712, 56.444408853401455
713, 58.32900459257644
714, 50.93149515469577
715, 34.38340702900041
716, 23.454789290929966
717, 24.08827948637918
718, 24.06366196024419
719, 20.49390894229782
720, 14.553743477916669
721, 6.664656593669406
722, -1.6905089826282165
723, -10.451416064678597
724, -12.03274640949303
725, -4.869198729034451
726, -0.009635083975354064
727, -0.2736511665893886
728, -1.2720141480003804
729, -1.5019013219948647
730, 2.111515409515505
731, 10.145497798713677
732, 13.104027993158525
733, 8.652519501801635
734, 2.674942821305649
735, -2.7928398535850647
736, -8.118831030148158
737, -13.15343859485074
738, -11.107889666218398
739, -0.6592532877157282
740, 8.564236690816415
741, 15.169401424189346
742, 25.12228719776931
743, 38.585524149774756
744, 38.78143286527802
745, 23.06457243994737
746, 7.559304528711436
747, -3.25087469730488
748, -12.927955806088448
749, -21.243570262734465
750, -14.01840149790496
751, 9.589332140878014
752, 26.254190530594315
753, 31.021938995671462
754, 34.773986542161765
755, 38.341638232919195
756, 32.51896366658684
757, 17.775241375901714
758, 7.968619072364163
759, 4.764046426343157
760, -1.2171082256290902
761, -9.442795541304804
762, -6.810837324626846
763, 5.883939268906033
764, 14.487290649017723
765, 18.17034067456143
766, 25.287175598768954
767, 33.21065320269054
768, 26.83224894832665
769, 9.8863773683197
770, 3.7224043120236274
771, 6.549918087934657
772, 7.841885568572707
773, 10.517959158754365
774, 26.416953765605285
775, 46.38932107749088
776, 45.14207637504842
777, 27.586236578857097
778, 10.19925743278418
779, -3.7768767017391838
780, -12.524330636168543
781, -12.287888122088589
782, 6.227998982770259
783, 29.55225510739683
784, 28.43798113603725
785, 15.146704074576519
786, 10.612076185696878
787, 12.435767752769607
788, 15.42923047612203
789, 24.26192977536266
790, 42.90483674487814
791, 57.88067533144431
792, 54.6055191993205
793, 42.824426297038826
794, 31.54812392334634
795, 16.598145139789267
796, -3.543793353608635
797, -15.236359984049614
798, -9.162802965815445
799, 4.253546794468093
800, 19.77679790205366
801, 32.90878793781167
802, 41.35128118863713
803, 38.98765497369004
804, 24.00066445985749
805, 11.150152775217975
806, 6.688468765934431
807, 5.980558863671831
808, 7.050959036416316
809, 3.882113191760709
810, -3.74159822083584
811, -2.4522233465459067
812, 9.210665026432707
813, 20.588833184055602
814, 29.572148070550156
815, 41.35162241455782
816, 52.98834626928419
817, 48.228499624714914
818, 32.2008030434522
819, 30.297642481611092
820, 36.07994379886941
821, 23.559062716286917
822, -0.2864052246832216
823, -14.123063538292627
824, -19.718561135449363
825, -20.373768743811524
826, -13.476782133547204
827, 6.198472140835747
828, 23.95989257989777
829, 16.984956430189868
830, 4.641623901637104
831, 7.878428991142755
832, 19.801717838937748
833, 35.587167406191384
834, 48.277112920120544
835, 54.61335185617099
836, 54.72344760373426
837, 49.02447778084479
838, 45.594149196535454
839, 47.331531874971915
840, 47.167027758596305
841, 42.42327218893752
842, 29.767349818700495
843, 11.301915294013725
844, 10.320316233255198
845, 27.409590495846714
846, 40.17503134786057
847, 43.41492194459488
848, 29.03766695453578
849, 1.446906405476966
850, -21.69436951564012
851, -34.58380064230187
852, -21.26127825910362
853, 6.4038777484679485
854, 23.301131592445017
855, 28.088683159745415
856, 20.851153630675526
857, 8.185646841644484
858, -1.5312954014989373
859, -7.4161002689638735
860, -8.486675642118826
861, -3.8114105841355013
862, 7.499060619812099
863, 19.06910981970759
864, 26.17319111658753
865, 22.174560936050057
866, 6.284831647760257
867, -3.479700944248634
868, -2.914766318699094
869, 11.367965012282184
870, 37.33082271264357
871, 52.484637390410626
872, 54.28814176132755
873, 44.61473014174817
874, 28.936987592177047
875, 21.9582432839552
876, 19.653812430070502
877, 11.98155889170448
878, 3.9478598053651694
879, 0.9322141564475714
880, -0.9330794449529094
881, -5.694590488871654
882, -6.486933595969731
883, 1.847184115898017
884, 6.471391986570325
885, 0.62909463535334
886, 1.388941582858024
887, 14.160027496164275
888, 23.354036764229477
889, 24.695497266761777
890, 18.892923050883837
891, 7.589210293326232
892, -1.084924302784657
893, -5.297794087287457
894, 0.39741075894653477
895, 14.131437173030918
896, 28.71739479630378
897, 34.35501102358012
898, 14.698012389946143
899, -7.5471991906219955
900, -5.747222528507791
901, 3.832104234799317
902, 9.126559222635024
903, 19.375836311653984
904, 37.04682253382862
905, 34.607013676137285
906, 5.69806844679897
907, -4.978553759166516
908, 7.8039589877303115
909, 10.409616618491327
910, 1.2086358545384428
911, 3.026244109533309
912, 13.674886341551428
913, 18.73539776665166
914, 21.153674831285116
915, 28.45374108198712
916, 31.04232112244972
917, 15.983090346700465
918, -0.5866658624258889
919, -4.97839545234001
920, -3.1925321133976468
921, 1.4902592696562351
922, 3.5795390692592264
923, 1.8940533425420654
924, 4.888909398574015
925, 14.367147499855037
926, 25.820894805878197
927, 36.219723011380665
928, 36.641911902316224
929, 26.4974947248852
930, 6.43588627178633
931, -9.361915416883676
932, -0.4082748226960575
933, 14.989585620016442
934, 16.70847524564715
935, 16.542335800254477
936, 21.658953039729568
937, 19.31216798765172
938, 6.216719058948456
939, 6.349145272316036
940, 21.328853339509806
941, 20.6554940383362
942, 6.195955143833999
943, 5.296817238059248
944, 15.032778609673642
945, 23.058272190971365
946, 30.08525044210637
947, 40.51288678525498
948, 45.76791477254346
949, 37.81094155263963
950, 26.847219377756574
951, 18.762648422847178
952, 11.979919551373314
953, 7.249391655291674
954, 5.27673283833883
955, 7.868488678649101
956, 23.827424063406852
957, 45.144877769670074
958, 46.50817625409218
959, 31.632124556838335
960, 10.776661515461
961, -9.291509503870657
962, -24.235130460725486
963, -22.950854894470467
964, 1.7552813710353803
965, 21.46351118352277
966, 24.019636496298062
967, 16.532976413305732
968, 3.4437071388479126
969, -1.0236875899322513
970, 1.317622050769387
971, 0.26224734790412185
972, -2.875174170153059
973, -4.336205027776032
974, -3.11231293988385
975, 2.0984133539104732
976, 12.312617357648833
977, 26.577560381875173
978, 25.002910102941314
979, 3.8729958951939807
980, -4.586088527565607
981, 1.1769453693163996
982, 0.4581721093118176
983, -5.294085369396271
984, -5.843379522489158
985, -1.91800515990235
986, 4.936644322466236
987, 13.441286249963923
988, 21.178961184870786
989, 19.646421201697194
990, 6.52411872746552
991, 4.845202588528537
992, 18.39008779741198
993, 32.079353468664976
994, 41.2028051887537
995, 38.1273805126707
996, 26.562981696066345
997, 14.488846460567402
998, 6.607191195674204
999, 8.007025439475001
1000, 6.200949607066377
1001, -5.010840871743312
1002, -10.917923656826588
1003, -8.170837051079161
1004, -3.9911887883290547
1005, 1.5620211355708307
1006, 11.967188607877233
1007, 24.685726178697223
1008, 31.111584482304806
1009, 35.54161589955811
1010, 42.543715493174204
1011, 44.04244744501011
1012, 35.66269189337618
1013, 19.680529170395403
1014, -0.43311076983673047
1015, -8.14092424273531
1016, -3.898915335303627
1017, 4.898418958148341
1018, 13.752985566864027
1019, 13.74459573470449
1020, 8.924686296074015
1021, 3.2956599660483334
1022, 1.8586001374214902
1023, 6.390199205271529
1024, 13.606762805789913
1025, 19.75287932792935
1026, 14.492832646926672
1027, 4.633562624636852
1028, 11.763387254604822
1029, 22.053953223142344
1030, 15.644374977921416
1031, 4.110300422021737
1032, -3.884143231368398
1033, -6.950098730079844
1034, -4.752417538523332
1035, 1.7631987734471295
1036, 9.44067728041091
1037, 5.714543150670579
1038, -4.0545829463226255
1039, -8.55582668638408
1040, -3.795987119292022
1041, 13.93734062485919
1042, 27.066050562836608
1043, 27.782814381325807
1044, 21.358509609425255
1045, 11.352982671813606
1046, 7.4347712498592955
1047, 7.709386131981773
1048, 3.306944260650198
1049, -4.253943662918118
1050, -13.94871471783108
1051, -19.41382932979468
1052, -16.977964787802193
1053, -3.2568777465862695
1054, 18.354782644242732
1055, 21.559498717483166
1056, 11.462621946340278
1057, 8.261500591842378
1058, 5.27164202030599
1059, -5.690644702417558
1060, -16.863756038332667
1061, -24.186462973857942
1062, -26.08138739768947
1063, -21.40549180894186
1064, -6.4439099604283
1065, 14.351384389484338
1066, 28.13368010755221
1067, 40.34704807940989
1068, 57.57306031476719
1069, 82.64393520310159
1070, 109.82504810425553
1071, 133.27829266629305
1072, 152.69075346745467
1073, 173.3704573452501
1074, 195.6707195998738
1075, 219.04026864732032
1076, 239.7193204281557
1077, 253.68852328103412
1078, 251.50557651428562
1079, 231.588295466026
1080, 216.8907130381035
1081, 207.62241666264663
1082, 186.24960164686217
1083, 155.82511793287358
1084, 124.31816785503315
1085, 89.31464555602315
1086, 49.73536292884637
1087, 26.332160108965127
1088, 19.075621942936323
1089, 6.512772216919984
1090, -11.393388009557384
1091, -23.713183096780995
1092, -22.300040727371652
1093, 3.314306708969525
1094, 20.991655718449238
1095, 12.988766855929953
1096, 0.14305256000307054
1097, -10.75732478116879
1098, -15.414223024250987
1099, -13.226024233221779
1100, -3.0650414690148864
1101, 6.908493490614546
1102, 10.44939585630118
1103, 12.707592825900974
1104, 15.87728574991388
1105, 20.027343492859472
1106, 20.12091206379455
1107, 3.0282759433725914
1108, -12.034712994226084
1109, -4.182706329060238
1110, 12.528647064551478
1111, 32.2788892964395
1112, 53.305302132015186
1113, 69.88384605776446
1114, 63.02760518433115
1115, 44.739953628651165
1116, 35.58698341108584
1117, 34.8398134263457
1118, 40.10233449400857
1119, 30.964440626349642
1120, 6.0622994829013805
1121, -15.702076240428141
1122, -27.95794508064273
1123, -20.001585362732385
1124, -7.390929185393816
1125, -1.2085196705602357
1126, 2.8160639118227664
1127, 6.020111551027185
1128, 7.3998051008661605
1129, 12.278949130861747
1130, 32.3262369961476
1131, 47.468437544186145
1132, 42.792479096266106
1133, 45.41799564858411
1134, 57.79449317564831
1135, 40.14308507163696
1136, 4.891866380038664
1137, -6.488955430212172
1138, 1.2596651397930145
1139, 23.475321427813924
1140, 45.56219103854346
1141, 58.723546834036824
1142, 44.7621738026869
1143, 14.964378909257448
1144, 2.5832793752647376
1145, 1.0330496681208388
1146, 3.7283934951792617
1147, 2.0483733335040597
1148, -5.236846133956988
1149, -7.016561576733238
1150, 0.9623316946317573
1151, 25.277828482439872
1152, 46.07270317333041
1153, 47.051575376664914
1154, 36.327673674379184
1155, 19.880613556191747
1156, 12.913664714515107
1157, 11.890632142992672
1158, 2.4550484101519032
1159, -7.8872189586491
1160, -14.237280269327584
1161, -12.973954306527503
1162, -4.793426895437733
1163, 2.6707090977251937
1164, 7.205385328100419
1165, 5.290574968048077
1166, 4.911613070736166
1167, 10.272600038806104
1168, 17.868223183886585
1169, 22.656769445498412
1170, 10.66149474896747
1171, 2.009647963081079
1172, 20.800735945699216
1173, 41.02678294952602
1174, 49.602714401084995
1175, 41.68617328994833
1176, 20.91858384300076
1177, -1.492395828836834
1178, -9.58622510099758
1179, 8.401837605731998
1180, 23.39788429137525
1181, 23.328334770814763
1182, 6.7297663195308814
1183, -12.123442632046135
1184, -10.830858074185016
1185, -6.44357836553354
1186, -8.438519366269247
1187, -4.310639061059646
1188, 6.222417080126888
1189, 14.055491170789537
1190, 19.494569516346928
1191, 23.94047257124066
1192, 13.872374145681988
1193, -9.451869090923083
1194, -8.21921719985312
1195, 13.569627791658604
1196, 37.51812754092043
1197, 45.812479864781835
1198, 29.23745972216966
1199, 10.190642637860037
1200, -1.9179052356485045
1201, -0.29462314983220494
1202, 9.56635358137737
1203, 20.755836471465955
1204, 27.34225949405254
1205, 28.44984753283461
1206, 30.807102701766325
1207, 31.65497837218072
1208, 23.72845066560103
1209, 12.319627003867026
1210, 3.780616456174357
1211, 10.798614566032484
1212, 31.393723020264133
1213, 47.02018971511461
1214, 50.890336935163305
1215, 38.4949635014641
1216, 32.73299821584442
1217, 37.560240824657285
1218, 34.34773552855995
1219, 27.86051232532509
1220, 28.394695822980793
1221, 19.8057058595964
1222, -1.506584848386865
1223, -5.029738246164015
1224, 1.2619024182013163
1225, -10.242249952380917
1226, -9.66159377053691
1227, 21.212345988445122
1228, 36.27341579177801
1229, 30.494099866580655
1230, 23.904966322959353
1231, 8.06826568188717
1232, -23.359258331864112
1233, -35.40227227366995
1234, -21.44263830891441
1235, 0.6860230664801747
1236, 19.304418658953637
1237, 18.759542428776967
1238, 7.4455104093235605
1239, -7.405521062218668
1240, -13.034368230880773
1241, -7.240273915863327
1242, 11.470117694368128
1243, 25.537494377504117
1244, 26.247881565943317
1245, 34.12646703269411
1246, 52.182238654766934
1247, 74.95977015115159
1248, 90.88653069426573
1249, 93.88156592691712
1250, 94.43210298564645
1251, 95.02466635196333
1252, 96.24295768937509
1253, 95.94889421227526
1254, 92.90469386407676
1255, 90.86882289552295
1256, 91.23041750901211
1257, 95.24066676140819
1258, 102.59458979626152
1259, 111.50365685835186
1260, 105.70568399100466
1261, 85.7781161281896
1262, 67.09435885974881
1263, 52.70041917283652
1264, 49.96280994895142
1265, 61.14054702484327
1266, 75.69128756195096
1267, 73.30516200710372
1268, 65.24842927040572
1269, 63.4138807508657
1270, 54.481808539284884
1271, 38.32616733204759
1272, 28.385311151879705
1273, 20.112275845734075
1274, 10.18037065505223
1275, 3.777159153501998
1276, 2.331800224428207
1277, 6.090508084937937
1278, 10.151503037443035
1279, 9.026435742916874
1280, 9.502047781570127
1281, 10.363610103597239
1282, 0.9821236051971027
1283, -2.185804411961726
1284, 14.357767544497165
1285, 17.851985054328907
1286, 5.655265585306097
1287, -0.6878168961425217
1288, -3.7245846297514618
1289, -5.575005654612141
1290, 5.4230831260551895
1291, 23.706740827266003
1292, 22.04177313210812
1293, 14.163693586670433
1294, 11.18216795694434
1295, 5.585030054187882
1296, -3.281053114005317
1297, -14.877137917023447
1298, -19.35305341085723
1299, -11.403109974673498
1300, -2.099845294742863
1301, 5.071375813889517
1302, 6.167421237964845
1303, 1.9417736384957607
1304, -3.5480895032587796
1305, 8.713325935869307
1306, 26.2808653533898
1307, 23.15049929551833
1308, 16.124228907098313
1309, 11.950473401278032
1310, 5.402859325034115
1311, -0.26616099416378347
1312, -1.7079501529756271
1313, -7.521462526237428
1314, -16.80853214350418
1315, -14.567874750139254
1316, -7.007645134085124
1317, -1.4563948580121178
1318, -1.9845506193155416
1319, -6.821904874615029
1320, -8.264113131579961
1321, -2.878676321761759
1322, 10.811381780536976
1323, 24.79088502735749
1324, 36.01310631575416
1325, 44.12256565868256
1326, 42.82840834874105
1327, 30.139201577609583
1328, 11.97634366784223
1329, -1.1917560122865325
1330, -0.03599835324303058
1331, 2.0765838771362723
1332, 2.0127258163902297
1333, 4.706992002625157
1334, 3.004240111460149
1335, -7.523592098948029
1336, -11.951888333008355
1337, -8.50457766050431
1338, -0.5348793842968007
1339, 6.271582876568118
1340, 8.95801288309849
1341, 10.86936682790838
1342, 6.297597917995972
1343, -10.823171862048184
1344, -3.0850199894907746
1345, 29.752219031858658
1346, 38.41569107907344
1347, 34.160376850459215
1348, 28.717962034760603
1349, 11.33275409669659
1350, -6.053277260443792
1351, 1.3955217398461173
1352, 16.969213989814307
1353, 29.412085214986746
1354, 30.3951634163609
1355, 21.55932801543122
1356, 7.388231470727533
1357, 4.724727612115203
1358, 13.925628539384888
1359, 23.2303363552237
1360, 18.139963157669627
1361, -4.635343461615776
1362, -11.616264656501698
1363, -5.7332266396251725
1364, 1.958865501019318
1365, 11.029761852361844
1366, 16.447738922448025
1367, 4.433488197290899
1368, -1.057474171679587
1369, 13.387577895817685
1370, 15.141540880131288
1371, 6.745423722325995
1372, 3.540206612714428
1373, 4.3648607911654835
1374, 9.874114920529337
1375, 23.979597828393253
1376, 33.423957947732106
1377, 28.91107462542186
1378, 17.304417396786903
1379, 5.268472629706594
1380, 1.8955371647189168
1381, -4.308098417532165
1382, -11.747462167421418
1383, 1.5386889688024894
1384, 17.196598069669108
1385, 20.23077603824595
1386, 25.99653661623188
1387, 26.389119684396064
1388, 5.4184081712223815
1389, -3.374782121135013
1390, 2.76806724676635
1391, -2.0394863130059093
1392, -5.0057325956368
1393, 3.034082498357293
1394, 16.237513764860978
1395, 22.928804247936114
1396, 10.676654619275268
1397, 3.0951965125323113
1398, 3.3435568005379537
1399, -0.059136952930202824
1400, -0.18082666908458123
1401, 5.736979366214655
1402, 10.534420390678406
1403, 22.347970633493787
1404, 46.07283194815045
1405, 52.372286614549466
1406, 36.7955738286978
1407, 5.684797345072184
1408, -9.935182142099166
1409, -2.2375494295574754
1410, 17.882143650105718
1411, 31.939243364135564
1412, 27.941044972229975
1413, 12.365789070940536
1414, -2.5273169430242888
1415, -3.052880142567119
1416, 0.2902029675747144
1417, 2.5495187386623
1418, -0.876433567692402
1419, -4.526199793133401
1420, -5.490572722812885
1421, -2.4227781862073243
1422, 2.2336177008837694
1423, 7.156612614779533
1424, 16.11724085935566
1425, 30.410933555547217
1426, 50.032766206205
1427, 51.587853563537465
1428, 33.17926534877324
1429, 6.359114143352599
1430, -4.987384352516074
1431, 1.7872348664873243
1432, 4.262330835780631
1433, 5.225682051721833
1434, 6.625373751371626
1435, 0.3403652352089921
1436, -0.8018483104283405
1437, 15.254178799032616
1438, 10.476291419825884
1439, -6.3346887929642435
1440, -3.8675734568464577
1441, 5.381302668868557
1442, 15.812711503197534
1443, 22.59375295926293
1444, 21.532418049128864
1445, 12.31906435564997
1446, 2.3888799504957205
1447, -4.651663300191558
1448, -7.780174252793586
1449, -9.64847464034574
1450, -6.691999520085574
1451, 5.308992789683543
1452, 16.283644234338226
1453, 17.86054939554242
1454, 2.6534602833785357
1455, -3.1727356258616055
1456, 5.010137567350739
1457, 17.79168704901258
1458, 27.14645602200153
1459, 26.30822470568455
1460, 4.106960714501383
1461, -13.230230179775845
1462, -11.671729497046726
1463, -2.69554502230676
1464, 11.580830779177631
1465, 28.563012319700647
1466, 29.498294556021847
1467, 19.537069201875056
1468, 10.719011975913872
1469, 13.917301351648348
1470, 29.310394428091968
1471, 50.11577086730131
1472, 63.856588635517255
1473, 61.548095906642175
1474, 33.36189952957511
1475, 7.4967137992571224
1476, -4.672203527802594
1477, -9.242414020910928
1478, -9.025523460111344
1479, -6.270630409381283
1480, -4.859204427313216
1481, 4.41906862334281
1482, 23.88453861753169
1483, 29.346171213329853
1484, 21.10805804005895
1485, 5.269888356493539
1486, 1.3220020454186852
1487, 8.339606298804028
1488, 20.05818003155764
1489, 13.239288278174627
1490, 2.2879027783474157
1491, 10.148655406177568
1492, 13.314534762026142
1493, 10.010124041467861
1494, 6.344762888124933
1495, 0.33289773984552085
1496, -2.5956529019076697
1497, 7.121972188281234
1498, 9.413023156518193
1499, 2.747146167944038
1500, -0.8680420685245736
1501, -0.24036693755874694
1502, 3.1666496214011204
1503, 4.529456771474543
1504, 3.5007843171492823
1505, 0.13714258531945234
1506, -4.941810721124966
1507, -2.2798424419563617
1508, 6.768512033792149
1509, 3.193473597739512
1510, 4.761880969592994
1511, 11.76389811487934
1512, -6.514815146181945
1513, -12.53185376237775
1514, 4.1812749451999025
1515, 0.8333341304048645
1516, 9.611078360423335
1517, 40.225425597882804
1518, 39.08492282540624
1519, 29.21323605893008
1520, 25.585386384298545
1521, 14.16976264719051
1522, 0.9312545109371513
1523, -5.90457234814221
1524, 5.484433690337255
1525, 15.732805131712439
1526, 13.194207685585752
1527, 15.764988633394978
1528, 7.6297317706082595
1529, -11.866774121061553
1530, 2.9287557564630333
1531, 21.43849219752701
1532, 22.710261366330997
1533, 31.397256421190605
1534, 27.973496136598442
1535, 4.699145128265172
1536, -5.959557649011913
1537, -11.333860069198408
1538, -14.621045976200094
1539, -0.716750817798129
1540, 25.872431685711717
1541, 50.998329989644844
1542, 39.74475197776769
1543, 11.690664929222748
1544, -12.616737994659843
1545, -16.62330609695232
1546, -0.6990506062750228
1547, 26.032816280336647
1548, 32.22964046190509
1549, 33.70222596507915
1550, 40.14043260022618
1551, 51.76024068380616
1552, 57.588979894931754
1553, 52.981418403562884
1554, 39.859538127442875
1555, 29.393404849683293
1556, 22.71456787983152
1557, 11.844776213416253
1558, 5.223209708879267
1559, 2.2762789835380772
1560, -3.024554751531241
1561, -11.937189985461373
1562, -20.202384206750594
1563, -19.232122937611166
1564, -10.285825594961352
1565, -0.4164572912955009
1566, 0.22216832161439015
1567, -5.755544205708702
1568, -5.487850576426354
1569, 14.528327107432233
1570, 37.16688624866538
1571, 44.22491904433036
1572, 31.077189429152895
1573, 49.12978394814809
1574, 84.14768797688112
1575, 111.8116195354578
1576, 130.81111589170223
1577, 139.315825998141
1578, 143.86425774159807
1579, 169.83292819174494
1580, 178.2625606081615
1581, 159.59898396877543
1582, 145.60043130466738
1583, 135.24823050683517
1584, 123.30290397909494
1585, 101.71611066574133
1586, 79.32565142816657
1587, 61.44028623154327
1588, 57.249571329364244
1589, 52.040438068270305
1590, 40.985371517085696
1591, 23.35051600487577
1592, 18.114478181761115
1593, 13.012569992552471
1594, -3.22995107459019
1595, -22.70552731881412
1596, -36.24223839207207
1597, -35.74896508898519
1598, -12.12069476873171
1599, 8.804748318872726
1600, 13.230069089561766
1601, -0.7019864416433848
1602, -3.980531996785885
1603, 0.9845954323152455
1604, -2.8595460476847165
1605, 2.325695509484376
1606, 7.9067546646197115
1607, 5.117462019151617
1608, 27.996346307588738
1609, 41.757613049523115
1610, 27.514147170028764
1611, 27.07549054777428
1612, 18.477939680864438
1613, -0.5460299396288519
1614, -2.51833057833187
1615, 0.9826936823037613
1616, 10.638847737572632
1617, 32.33624387074542
1618, 37.18803317796301
1619, 32.63023200961152
1620, 30.277961678882775
1621, 11.613374850654509
1622, -4.68981074756357
1623, -10.924318617837343
1624, -21.216621967503215
1625, -8.968647529336067
1626, 22.487943930355186
1627, 38.49326754266326
1628, 42.775338055124166
1629, 31.500682982545413
1630, 4.950454090112544
1631, 6.075961939128547
1632, 21.10130201285733
1633, 33.199241867002684
1634, 41.814636337924185
1635, 35.37873333009293
1636, 17.308389238155996
1637, 8.594697529939594
1638, 9.708665200230143
1639, 21.836212957977068
1640, 41.29272660994911
1641, 45.6263328970706
1642, 26.533291083467475
1643, -6.87330844153621
1644, -14.815167839075002
1645, -13.480504531238694
1646, -6.297607718490099
1647, 11.67206040028941
1648, 4.187705652738714
1649, -6.8676272849620545
1650, 1.7053024600254503
##END=



