##NAMES=
##LOCALITY=
##RRUFFID=
##CHEMISTRY=
320, -8.072919583658859
321, -5.639083112667777
322, -3.533354401608449
323, -3.239765583510689
324, -2.7369676666721716
325, 1.5221791082767595
326, 7.983532802024456
327, 8.611370469878239
328, 3.0358807872039506
329, -4.451868101655236
330, -13.405603376448653
331, -15.645954654422894
332, -6.417116098445149
333, 7.312218947478868
334, 16.924950800436818
335, 22.930087502134484
336, 28.83850794634327
337, 33.444959670145636
338, 28.026501665002343
339, 12.02737719202014
340, 4.640835184024127
341, 11.957328887265248
342, 20.60154599904854
343, 17.770444422726086
344, 10.585132210754637
345, 13.290141991298697
346, 23.63426429624178
347, 29.277676867765877
348, 30.275201716118772
349, 37.57174524433958
350, 53.47000671001615
351, 62.927340111582
352, 58.19301944384142
353, 45.350206915169565
354, 31.28627622956128
355, 17.243199084091884
356, 7.908881061486227
357, 2.264140571171538
358, -1.3448773749687462
359, -3.4066624823881284
360, -3.81530898830988
361, -2.521451224059092
362, 0.16208679344663324
363, 4.225931468822637
364, 8.460380409917434
365, 10.230448919314313
366, 9.496980701103894
367, 6.187342958909085
368, 0.8754602007743415
369, -2.9578552027273872
370, -4.968624141700275
371, -2.6305962174010347
372, 5.142762364715509
373, 8.52181721496163
374, 0.5500694119682521
375, -8.786224332006896
376, -5.817957071730689
377, 4.796703320985216
378, 8.756717066958572
379, 6.518257276939039
380, 6.642277248990922
381, 10.082160485947497
382, 9.215060311237721
383, 1.509300370292749
384, -2.3764500775478155
385, 4.283529241367432
386, 14.711144070034152
387, 17.96096820956609
388, 15.38195066825574
389, 10.902225580743561
390, 4.728340983731869
391, -2.7815849397638885
392, -12.050240745222254
393, -19.42729639964591
394, -24.194960153176908
395, -24.64986595589744
396, -19.535773678182977
397, -10.497002132203761
398, 0.7623533274286274
399, 12.5018685142295
400, 17.94699379506983
401, 17.271549659627908
402, 12.493615353494079
403, 4.426242187450043
404, -0.9852917737371172
405, -2.92685021497482
406, -2.4320406037913926
407, 0.15037238935383357
408, 3.644643183788048
409, 7.095228504840634
410, 16.26054590588319
411, 41.71733710440003
412, 81.50674715421883
413, 115.92701985238227
414, 142.75082510011634
415, 155.53467157527302
416, 154.022563480597
417, 151.93237355223573
418, 153.93171717115865
419, 160.68586719145242
420, 172.60846045607013
421, 187.07223252435824
422, 200.9186881494129
423, 209.44723413752536
424, 202.23066478509782
425, 184.5121597345801
426, 178.98908614445418
427, 184.8801931464418
428, 176.97430712585628
429, 150.78368804061938
430, 125.20388152366058
431, 107.55841450429898
432, 87.49389034881824
433, 57.735273241997675
434, 34.84941657104537
435, 30.895708633508093
436, 36.22881057927725
437, 25.63037276029536
438, 3.5436009682557597
439, -6.950481093530016
440, -6.038840044236167
441, -7.2225843412384165
442, -13.140827574127343
443, -15.307044199789743
444, -10.465223996575787
445, -4.022773651010539
446, 0.6688700995255203
447, 9.094728183857114
448, 28.352972779045103
449, 50.71793643661067
450, 61.261755331975564
451, 60.00049886070428
452, 48.96631659629247
453, 29.937320189339516
454, 13.75132909425065
455, 4.12762509281265
456, 4.4157424901382
457, 15.857405377793839
458, 28.606437204869053
459, 34.91038923682572
460, 34.46283683648471
461, 26.96225277359872
462, 16.32871924314577
463, 9.326755407208566
464, 5.210937619137894
465, -1.619304794794516
466, -10.85517381218915
467, -16.935174524423473
468, -19.615683339993666
469, -19.345036527325192
470, -16.083014824534985
471, -8.317985040491749
472, 5.075945701077671
473, 12.113618432147177
474, 4.290824742479799
475, -7.614088686979358
476, -11.996168351903634
477, -10.585024868567416
478, -5.741313809282929
479, 1.7903599175824638
480, 9.122696659681424
481, 15.495843962718936
482, 19.257276739211193
483, 20.344175378792443
484, 20.37468100315482
485, 19.686130129973208
486, 17.052984076462963
487, 12.033614364896493
488, 9.485592855918185
489, 11.477711186385022
490, 17.94210129599105
491, 27.447660580673983
492, 35.73294498226642
493, 35.403550070862366
494, 28.7198399361464
495, 22.235771377515448
496, 15.60804354519314
497, 5.707426909115384
498, -6.220860584996899
499, -13.783959725410568
500, -16.386947153470373
501, -16.59968757077695
502, -15.16694950640158
503, -11.44143688109898
504, -4.811451122716335
505, 2.248124886610185
506, 8.002479563895577
507, 11.819595598162323
508, 12.555468773938628
509, 14.948992183758037
510, 28.42829279267653
511, 51.538763753707826
512, 72.2839634906677
513, 90.61843530347642
514, 109.19404340333176
515, 126.9823592876919
516, 133.7147524578154
517, 128.21138281870162
518, 123.24211143880257
519, 122.86467245290078
520, 127.38859652546034
521, 136.89572577608033
522, 141.46219220736293
523, 133.96153279291684
524, 122.91543272848276
525, 117.88432250473761
526, 114.95033194041525
527, 107.41280876459086
528, 96.20082045008849
529, 83.94337795028878
530, 68.5589991899883
531, 41.81317775460457
532, 11.62843075002229
533, 0.4892142418934782
534, 9.372709653127458
535, 22.005868535497484
536, 35.110303835961986
537, 39.39931263155859
538, 32.556471660298484
539, 20.9032199335129
540, 7.693198035272417
541, 2.337260235780377
542, 10.680734850245244
543, 23.29553171424004
544, 27.73634608869952
545, 28.996064352130816
546, 35.20199227069725
547, 43.57609393537132
548, 47.41352354438004
549, 47.87266881114783
550, 49.655044080383504
551, 50.72559577443553
552, 39.733948943551695
553, 18.382187119747414
554, 10.651873910982886
555, 18.136985600340722
556, 18.63301502145032
557, 7.015552820200355
558, -1.6974991444471925
559, -2.9783139203377686
560, -3.4350892728198232
561, -6.571306525107957
562, -7.374404046352538
563, -1.9185322734692818
564, 5.535872100144843
565, 10.550360002765501
566, 15.297063806553979
567, 23.920359200798885
568, 29.349296426709316
569, 16.746207246219
570, -6.074540915687976
571, -16.257794999419275
572, -15.787900148258814
573, -13.853148461291767
574, -10.105781156579269
575, 1.5552143481968415
576, 20.38186702812345
577, 25.185759257733025
578, 13.4666396845696
579, 6.596288678816563
580, 10.462701615153037
581, 9.076770680468599
582, -2.850688800257103
583, -7.242922405650916
584, 4.505403279277289
585, 16.97244019430036
586, 18.64941603412626
587, 17.323463490507038
588, 19.983103505976942
589, 19.097876721175908
590, 5.4666141556017465
591, -7.594588727658447
592, -0.6602958980374751
593, 14.658865034089558
594, 11.812411068412075
595, -1.5120456111985732
596, -2.0847590741209387
597, 5.954436501052896
598, 3.6529154446202483
599, -5.938674136460122
600, -3.6656210730720886
601, 10.036591924624645
602, 16.228652537433845
603, 12.614313239216699
604, 7.148482852147481
605, 1.5891356306192392
606, -3.974686681793628
607, -9.808585818217125
608, -11.1665499060191
609, -6.368176124229649
610, 2.065997029454138
611, 13.398421482562753
612, 15.63388546051101
613, 2.1654341313965233
614, -10.346966578721549
615, -11.37034535533212
616, -6.394526452778791
617, 0.17723985033035206
618, 10.413575381661303
619, 26.9788130996767
620, 43.66052281115708
621, 52.915417935211735
622, 55.106488888823606
623, 51.00382606449921
624, 43.49231383970755
625, 38.90254668734951
626, 36.4323290576167
627, 33.31474451186159
628, 30.40271171313134
629, 30.97729973602327
630, 33.6194573943817
631, 31.689771400986047
632, 24.70723077106868
633, 13.658321504965897
634, 1.5408420747303353
635, -3.930133621848654
636, -2.8925031824064718
637, -3.0913703914638972
638, -4.923852618501769
639, 2.647587686472434
640, 21.664378921592743
641, 34.583952372888234
642, 36.90019718654594
643, 36.67792423052242
644, 36.35094166033059
645, 28.72148871235231
646, 11.397773620260068
647, 1.2863378750184893
648, 4.633728039019388
649, 13.066945844769634
650, 22.603584380303346
651, 29.095441729578397
652, 30.73465607876051
653, 30.01195194626007
654, 28.79008565821914
655, 30.1004432638033
656, 36.582686233071854
657, 36.52657340182168
658, 18.000386642821468
659, -3.2099125976360483
660, -8.723106250176443
661, -5.907475144674663
662, -3.8117460545581707
663, 1.4882614526682119
664, 16.37690051291065
665, 32.40619053539149
666, 34.865863317802905
667, 29.38486816613431
668, 27.64153217876992
669, 26.783362041245255
670, 19.797016934538078
671, 8.677188773156558
672, -0.15976957185830543
673, -6.323394087424731
674, -7.64550867387652
675, -5.7408841017204395
676, -5.3901330333765145
677, -3.6795509725538977
678, 10.315550864275338
679, 33.59968303315645
680, 45.81602439873268
681, 46.741011852871
682, 42.68576173126803
683, 33.99260413206912
684, 19.24211627898967
685, 1.5099739158572447
686, -3.4492198839811863
687, 3.715967849565459
688, 12.19945180179866
689, 21.140352574297594
690, 29.072912773531243
691, 34.655881256258
692, 29.863164236637203
693, 15.504189719971237
694, 6.1126644060937
695, 3.7349796239732314
696, -0.7885689497779822
697, -8.468484699668807
698, -10.810680692477945
699, -7.058541980894461
700, -4.702157968864867
701, -3.865777485984836
702, 7.75682338889419
703, 31.318852769260047
704, 39.16156557440763
705, 27.213626340109386
706, 20.51630830929571
707, 23.92389678798736
708, 21.152733199280192
709, 9.730804862143486
710, 11.016009197101994
711, 28.036338625637654
712, 28.70065614730811
713, 7.196731222466951
714, -0.5053205965127745
715, 12.630433990492293
716, 16.8052041722367
717, 4.915211220955825
718, -0.5073208019930462
719, 5.559069180912957
720, 9.788618904759915
721, 7.705676035389843
722, 3.69242066727611
723, -0.2430011565716086
724, -0.7072224630319397
725, 3.2300035301564094
726, 9.395150838353857
727, 17.992452154949206
728, 33.08205007515244
729, 53.95080999101265
730, 51.487024911881235
731, 19.574395546244887
732, -6.32445329607981
733, -16.556501150239
734, -17.685357788277997
735, -12.053089037700374
736, -6.038461524795821
737, -1.2639502864208225
738, 0.47054134474319653
739, -0.9859206712080777
740, -2.171692992204953
741, -1.9814471879726625
742, 1.9713624423425244
743, 9.667349114995432
744, 10.348441179810834
745, 3.2206758197139607
746, 7.038508353846282
747, 24.649849121884017
748, 36.44773380778497
749, 37.73233116384472
750, 26.69072075292388
751, 4.641503698822362
752, -14.3834448677012
753, -27.097400339951037
754, -17.938630620015374
755, 13.600905508425058
756, 44.86197339645241
757, 68.580663932466
758, 78.15407210878266
759, 72.82082301303672
760, 54.87088805168514
761, 28.377937511605523
762, 13.216636483118691
763, 10.483712020849907
764, 4.231958020073307
765, -5.088709248083887
766, -3.951134935439768
767, 5.516375344604967
768, 7.657543792493925
769, 3.587330034329625
770, 6.8234212076527
771, 15.508187529864244
772, 17.07486153419495
773, 13.98050697286999
774, 17.036690715188797
775, 22.85867185860343
776, 19.65172644042468
777, 11.136941935278173
778, 8.654774373463624
779, 10.818690579704707
780, 10.288451347473256
781, 7.812411022486685
782, 5.458428343432843
783, 2.6462608552942584
784, -3.0849001245319414
785, -7.639613543392443
786, -3.8082248118985262
787, 3.8717720573777115
788, 8.97200733018235
789, 14.791074929760725
790, 23.986762095857557
791, 32.20368601465816
792, 34.72294260304079
793, 34.478924568550156
794, 34.171958577410805
795, 28.527716644362954
796, 13.485219290638724
797, 4.579176438321156
798, 10.42155671789078
799, 21.440022367161873
800, 30.49845202557708
801, 32.54049688162331
802, 25.31492334958466
803, 16.18627827885075
804, 8.274125757331149
805, 1.286883666079575
806, -5.397461916182692
807, -5.873900832954405
808, 0.8360056520796206
809, 4.643993299258909
810, 4.445860137144791
811, 11.409483941204599
812, 24.223650242927306
813, 20.873100195852203
814, 2.563656362038273
815, -2.485537776150977
816, 6.384233518741439
817, 17.017981796502227
818, 26.19218782178541
819, 30.104773058813862
820, 27.070660786972894
821, 13.095568416946207
822, -5.663627691322745
823, -14.014788389092246
824, -12.183805403898532
825, -0.20806722263705524
826, 14.38237806789175
827, 17.257816266234386
828, 11.7707264351925
829, 2.648899191055534
830, -5.275379738557149
831, -8.008825211905332
832, -4.304842185281359
833, 7.386844141980873
834, 21.07042771713577
835, 31.188048938177417
836, 32.69968970187847
837, 23.35051628076235
838, 11.94279149864542
839, 2.383780379532709
840, -1.718060551358576
841, 0.0043732338849622465
842, 4.203897807929025
843, 10.403178358606056
844, 18.375337535160725
845, 25.801829752656886
846, 19.53434124329715
847, 3.217407458242178
848, 1.360981033738426
849, 10.10239916342016
850, 8.179325384614913
851, -0.5057385876525586
852, -1.782022661553583
853, 0.5201227584916523
854, -2.1116284600589097
855, -4.92998039101667
856, -0.23652745494791816
857, 4.906364567100354
858, 1.8095723227761482
859, -3.904646224946191
860, -8.142897846811593
861, -6.1519345054011865
862, 5.136642934624888
863, 14.007541822515122
864, 14.442012305244589
865, 17.437952107568435
866, 26.259750386376254
867, 33.178395410145185
868, 36.0388178707135
869, 34.441261447633224
870, 28.83962128949679
871, 21.99114586853193
872, 14.21437327250078
873, 5.231135678448936
874, -1.4372270332296466
875, 1.9432631193367342
876, 9.171671471329319
877, 5.604177170436742
878, 1.3023436851103725
879, 10.782341357151836
880, 18.71208141953275
881, 8.698412354419816
882, -0.4529357762139625
883, 5.097930561511475
884, 12.39287616947604
885, 13.958223073147565
886, 17.145254104585547
887, 23.61136501736837
888, 19.271110781406605
889, 2.9001912806065775
890, -5.1602098392295375
891, -2.859270187853781
892, 4.444608985007562
893, 14.730967666666857
894, 20.684194785312684
895, 21.260697424540922
896, 15.32118327602302
897, 5.049867518808242
898, -5.192045927579329
899, -11.990230006738784
900, -10.823226437273206
901, -6.318821918110643
902, -1.7704091245423115
903, 6.178905963773559
904, 19.311927725484566
905, 25.16394748339235
906, 20.596562992870986
907, 20.396686088399292
908, 25.84449334482406
909, 19.913924382525693
910, 4.373727633613271
911, -0.039514873051757604
912, 5.189760457371904
913, 11.053816124857349
914, 14.336602896335535
915, 10.904471872751856
916, 4.207857667313419
917, -0.6168065294696135
918, -1.5166847899408822
919, 3.4704853273087792
920, 9.758061051471941
921, 13.912745606926364
922, 11.969209236880033
923, 4.157379738305735
924, 7.947257447421634
925, 24.873378271485763
926, 35.553648061027616
927, 36.55600240089598
928, 26.34018027058937
929, 10.731862413047565
930, 5.606276223511941
931, 8.375545547407
932, 14.793106496090786
933, 20.807085158391146
934, 23.109815859433184
935, 18.58489892464013
936, 5.674276888526492
937, -3.679639674750433
938, -5.2890345890346
939, 3.9150637764005296
940, 21.956030861931595
941, 25.000436105805875
942, 13.060714263839145
943, 1.5669574923917935
944, -7.229446303545046
945, -12.780497065713917
946, -10.545737631851807
947, 7.548978626396547
948, 24.85754307085108
949, 23.160401474385253
950, 14.128821568143849
951, 4.95589438936895
952, 2.641213182751926
953, 7.954240882084832
954, 8.43816468075147
955, 3.339121587266618
956, 3.1679990084976453
957, 5.551309094309545
958, -0.5515416234625263
959, -5.780013596574463
960, 9.59382173851236
961, 29.97097022723665
962, 34.34976182379569
963, 32.14017953557004
964, 29.27294854529282
965, 16.91948894198049
966, -5.338924241303175
967, -7.02932437290292
968, 13.250594230974002
969, 23.728755518077833
970, 21.95728739146398
971, 14.868334677874827
972, 4.987074859450331
973, -3.3628284217074906
974, -4.873135568399448
975, 6.780621594265085
976, 13.737244845652185
977, 5.184485714792572
978, -3.538075333280176
979, -6.946283301108451
980, -5.214129420061454
981, -0.15873398272060513
982, -0.40991151377602364
983, -3.673058840369322
984, -1.2402400106138884
985, 4.565407911727107
986, 9.595468108164823
987, 14.1031962604402
988, 18.618038159651405
989, 18.52667526426285
990, 13.171411376083597
991, 23.108365876865264
992, 46.27386713587157
993, 46.21305263680961
994, 25.231505529101014
995, 9.579657769627829
996, -1.062964325525627
997, -13.843638701975124
998, -19.05426591327705
999, -6.013180418385218
1000, 11.850775937698018
1001, 27.636225499480133
1002, 35.22159240017436
1003, 33.81274393694548
1004, 28.525842264941275
1005, 20.189906705711564
1006, 8.53761623396531
1007, 1.0965324948274429
1008, 10.095385302583963
1009, 17.61713257190513
1010, 4.985559033707887
1011, -5.22850156481627
1012, -2.3115468084465647
1013, 4.814902078278919
1014, 13.427209942643913
1015, 19.775841217744528
1016, 23.229640877470047
1017, 23.517514415745154
1018, 19.41027545632005
1019, 8.78587416493383
1020, 0.15406084060759895
1021, -0.578021252232702
1022, -2.554355216235763
1023, -8.779463486495843
1024, -3.0164360504936667
1025, 15.51869193766106
1026, 26.36265330369406
1027, 28.39891121643086
1028, 25.876271732823625
1029, 18.900917524736997
1030, 7.405708652046542
1031, 2.846935339902302
1032, 11.70761903366747
1033, 25.7708308246697
1034, 38.3796266520917
1035, 34.784253131705555
1036, 17.17277414167029
1037, 2.900116721224549
1038, -1.7505845604441674
1039, 11.014508016164655
1040, 26.924844138124627
1041, 30.43649754744638
1042, 19.65558085414068
1043, -4.110093174831945
1044, -21.087066761653205
1045, -25.8452635273552
1046, -9.36540717755679
1047, 16.182691663707374
1048, 19.241721276797307
1049, 9.321557952311196
1050, -1.8115930006474628
1051, -10.510331865302305
1052, -15.363880502048232
1053, -14.313302814067356
1054, -8.033055909386803
1055, -2.885988591309797
1056, 1.192900429324709
1057, 5.673791522784995
1058, 6.130636532951939
1059, -2.472228022624222
1060, -15.722727445320288
1061, -31.07674972447512
1062, -35.8039232058627
1063, -27.20826802936699
1064, -8.501284085014504
1065, 12.79978080549472
1066, 18.060481987841285
1067, 18.222046523741938
1068, 26.204967122632752
1069, 45.49374760579849
1070, 79.43329754463866
1071, 131.284288232353
1072, 187.59728146898988
1073, 224.63774229291175
1074, 243.40845062333028
1075, 251.8186932000367
1076, 250.85046551458026
1077, 241.38487717885982
1078, 228.15799593399242
1079, 212.36925411546963
1080, 185.84612728135198
1081, 148.66590862756675
1082, 107.61682811890478
1083, 66.7021637226344
1084, 38.47581573648313
1085, 24.84884734557363
1086, 27.30132522728536
1087, 33.125525699311765
1088, 33.76090574641967
1089, 22.667111433769605
1090, 3.4682124397627376
1091, -10.655216892341286
1092, -18.221881127978577
1093, -17.30777262170841
1094, -11.65722527091566
1095, -4.009412526158485
1096, -5.377834281520336
1097, -14.719523152084093
1098, -15.588596840999344
1099, -12.216145770698404
1100, -15.565992648071642
1101, -14.448682621631406
1102, 0.28770582618267326
1103, 18.186242527208606
1104, 33.65300978306004
1105, 40.15250802362402
1106, 36.66320547380951
1107, 23.320101673103864
1108, 7.2502157146652735
1109, -2.3452810005471747
1110, 0.21969738640882497
1111, 15.141512885458042
1112, 14.263575692175436
1113, -1.4903698889161205
1114, -7.80458374458135
1115, -7.917629726935502
1116, -8.723754726972402
1117, -1.1547689706287656
1118, 19.469878048128976
1119, 31.62376513554841
1120, 29.984376119063427
1121, 17.765173518973143
1122, 1.5184456414169745
1123, -7.201723149780037
1124, -7.2311654059019475
1125, 2.5403448663548716
1126, 19.51376291784618
1127, 38.480292030195415
1128, 41.06443983624649
1129, 28.170695026938347
1130, 6.823050623842391
1131, -11.059250913292544
1132, -17.774783462166624
1133, -13.216833576319232
1134, 1.7059963866424823
1135, 19.65676520764032
1136, 38.58144770400463
1137, 50.82266189798747
1138, 59.160280130791534
1139, 66.01721788571876
1140, 65.6829295981322
1141, 55.71854877567398
1142, 34.61879349449009
1143, 13.579370226289711
1144, 19.761474600844167
1145, 33.38125507807081
1146, 33.68983683660372
1147, 31.47787509892032
1148, 30.525363970556327
1149, 29.62108909061135
1150, 28.84323727823312
1151, 28.724199769150346
1152, 20.57111246014165
1153, -1.3917569538382395
1154, -12.86630092217888
1155, -6.059020007455729
1156, 22.373496398623956
1157, 49.51634492481844
1158, 29.58483114158298
1159, 3.0123376966025717
1160, -0.31550469457283725
1161, 6.206246312075791
1162, 19.66634751822494
1163, 40.78900347884951
1164, 51.3664672139455
1165, 22.22040159907465
1166, -1.8439803888925326
1167, 3.514773998138935
1168, 11.050293896650373
1169, 12.373195031481373
1170, 3.3294488691788047
1171, -6.355613926194792
1172, -5.58988686783573
1173, -6.091653070795928
1174, -10.272774089891755
1175, 3.2626697286802937
1176, 27.939965799395623
1177, 33.91906386901019
1178, 38.00946491889363
1179, 54.59672608232154
1180, 42.967679575706825
1181, 1.672605888033786
1182, -9.213535893335802
1183, 1.444763844652016
1184, 7.60977355088221
1185, 14.397812526645794
1186, 22.818624870879148
1187, 19.441210228049613
1188, 9.330233955152607
1189, 19.595195846814022
1190, 36.21863366439993
1191, 41.42226010953277
1192, 32.88934893791679
1193, 12.414721956669382
1194, -3.458513575395955
1195, -13.008714555095821
1196, -15.229433438983733
1197, -10.119106191696346
1198, 2.328980501425576
1199, 16.78238952147126
1200, 30.149938032202726
1201, 38.775443169017535
1202, 38.30024764009454
1203, 24.45043243328405
1204, 14.146969545035518
1205, 15.484476246110034
1206, 25.533597184268046
1207, 36.68336486677504
1208, 38.05564867347789
1209, 30.834948987578855
1210, 17.29237839756911
1211, 9.314027501687406
1212, 8.509408230959934
1213, 8.368727684728583
1214, 5.144413874015527
1215, -2.449946383592078
1216, -2.1292004555730273
1217, 6.889473522423032
1218, 7.679113762254474
1219, 2.8508059661573952
1220, -0.2594710816213137
1221, -4.371629747558018
1222, -8.414353781038699
1223, 4.972562713475327
1224, 24.117261619234114
1225, 13.496338437503937
1226, -5.8329222458628465
1227, -17.888231408617685
1228, -18.559818724953857
1229, -8.713629350763995
1230, 6.354554832103531
1231, 16.519730142234494
1232, 11.270459932691438
1233, 9.94686433075617
1234, 15.901458997629334
1235, 16.966933019396947
1236, 10.272160754059541
1237, -5.647855963612983
1238, -13.303250675758363
1239, -5.938466774089875
1240, 15.950169527606704
1241, 35.394914250086686
1242, 23.65454700687087
1243, 5.699622608469781
1244, -4.291610003315327
1245, -7.170359350997842
1246, -1.0989303076630677
1247, 18.6760476856507
1248, 39.953004884237316
1249, 52.58849672487531
1250, 63.9614189517813
1251, 70.56393102114521
1252, 60.176351898059465
1253, 39.66968224843595
1254, 17.25124300775269
1255, 19.466232443235185
1256, 41.41276081556998
1257, 50.219006715578416
1258, 47.50691765609963
1259, 36.55841108151981
1260, 21.461195488725934
1261, 12.310019104935463
1262, 28.76372215778224
1263, 42.187602872262005
1264, 28.304404739913934
1265, 24.236962498697494
1266, 36.57924512154568
1267, 40.50981756183501
1268, 38.63775586241081
1269, 34.376081654421114
1270, 15.401667985670201
1271, -6.922001097484099
1272, 10.665338989002976
1273, 38.35162517355661
1274, 40.08570199546375
1275, 33.695074611866175
1276, 25.25591106459933
1277, 16.245545489590086
1278, 11.012359574608126
1279, 13.60015219577167
1280, 5.1390396904264435
1281, -12.460907878582702
1282, -18.86412358326197
1283, -15.940444806605683
1284, -6.471923309908561
1285, 7.122855518238794
1286, 21.816619869817487
1287, 26.67155731890989
1288, 29.605341528735607
1289, 36.943894616639
1290, 35.161524563766534
1291, 23.950118596861103
1292, 12.301484597719991
1293, 4.809286067042876
1294, 3.217734331921065
1295, 9.608016772033125
1296, 15.945756515573294
1297, 2.746663154566022
1298, -7.9594496960414745
1299, -2.813750256321555
1300, 12.737203156321584
1301, 29.748648531840672
1302, 31.914940319701145
1303, 20.089972938413666
1304, -0.42955399567017594
1305, -3.2863409705419144
1306, 7.010039051810281
1307, 16.928927721124637
1308, 13.51565299497679
1309, -3.235720385072682
1310, -8.528362389631639
1311, -8.147414321027327
1312, -12.497368040553965
1313, -13.077382555610711
1314, -7.722292109647242
1315, 0.5051629060351388
1316, 12.800110743081177
1317, 28.548744029217914
1318, 34.25374502927252
1319, 29.89694544518079
1320, 25.199628517586234
1321, 17.432163702249454
1322, 5.3353395707424625
1323, -2.964284491525177
1324, -4.446887967972316
1325, 5.117826667013787
1326, 21.619914673473886
1327, 38.016400593717435
1328, 35.27115397889929
1329, 24.077169602133836
1330, 21.963366004235013
1331, 22.983852996816267
1332, 22.742836280219763
1333, 13.812340295758759
1334, 3.6057872313690496
1335, -0.0999538675630447
1336, 5.4567125341395695
1337, 16.557240343689728
1338, 21.364952455095136
1339, 13.856152612632513
1340, -3.881576148236036
1341, -3.7188234304217076
1342, 5.145686974755108
1343, 4.018707961152586
1344, -2.202260603086188
1345, -9.995560205318498
1346, -12.043489990650869
1347, -5.822411902360045
1348, 9.22646187690816
1349, 18.151586733347585
1350, 17.255237280506435
1351, 6.710921536662909
1352, 8.764023816558847
1353, 27.90805867586323
1354, 32.39108147022739
1355, 27.349130747819572
1356, 23.670330773647265
1357, 23.41315040487075
1358, 26.349786077632643
1359, 30.15196668177714
1360, 24.855084042342696
1361, 6.798895792244139
1362, -7.150743709734115
1363, -6.761239384487226
1364, 19.25149888031001
1365, 35.40837552183666
1366, 33.64438856031188
1367, 29.893507463720653
1368, 28.67874177429303
1369, 30.86205212165487
1370, 24.616863285339377
1371, 13.25559807615673
1372, 7.578594111668281
1373, 10.269247174820975
1374, 20.132619191543426
1375, 26.945877573749613
1376, 20.74251524461738
1377, -2.260143099943889
1378, -15.015504039154848
1379, -12.293011184943225
1380, 7.12441300074147
1381, 27.185492473491422
1382, 37.38879078592913
1383, 29.303879799216247
1384, 16.00869691116236
1385, 7.992034622199981
1386, 3.1634555696696225
1387, 1.5779003483808083
1388, 4.660076790094308
1389, 9.546898923456183
1390, 14.240719719385652
1391, 17.663342584725115
1392, 14.82019465243502
1393, 4.1495647795131845
1394, -2.7957456583683324
1395, -4.261276734818921
1396, -0.21982874402942798
1397, 0.48523013805493065
1398, -1.1757036086685275
1399, 4.248254256265
1400, 16.573103723116446
1401, 31.256999345215718
1402, 32.47473491390633
1403, 24.037382086288517
1404, 12.879626388221595
1405, 6.2953662236157015
1406, 2.928726377151861
1407, -4.231443054599367
1408, -3.274848467189713
1409, 9.203365953101184
1410, 27.29999103649493
1411, 35.92062012023462
1412, 26.292439792046935
1413, 5.767574155180682
1414, -9.790850274117247
1415, -4.068073346994424
1416, 14.465059934874944
1417, 30.547826977436443
1418, 16.044191165854954
1419, 2.583016767545587
1420, 5.179844717778451
1421, 20.427930725183614
1422, 34.18116618819249
1423, 35.04231814054356
1424, 18.135767212889277
1425, 3.3392528072781715
1426, 16.653955830656514
1427, 26.656062786667462
1428, 25.686196757413654
1429, 17.063000768101347
1430, 6.347425747012267
1431, -0.5536595916914848
1432, 5.05991426286505
1433, 4.621595642561488
1434, -9.861357174113664
1435, -4.521955209703265
1436, 10.64575706276105
1437, 17.387161662825747
1438, 14.203875907832526
1439, 3.849302721253025
1440, -6.859115585410564
1441, -4.289883807849037
1442, 7.522120017841871
1443, 3.2326078067142134
1444, -2.750595654601284
1445, -2.629049625771131
1446, 3.144674828535699
1447, 12.008635979261499
1448, 18.674630438810254
1449, 8.355785836695077
1450, -6.386864455581417
1451, -8.221115243359918
1452, -2.6514406689925636
1453, 3.3742684782246215
1454, 0.47546113851285554
1455, 4.799455766492201
1456, 16.315109452408933
1457, 18.81251390502416
1458, 16.37226495181085
1459, 10.503996149287104
1460, -1.6328082231123062
1461, -2.0161067775629817
1462, 15.636535938873067
1463, 21.761114009390894
1464, 15.863641280980119
1465, 3.9426392768066307
1466, 5.1687978459635815
1467, 8.331094887810423
1468, -4.341220698128836
1469, -12.160392221733218
1470, -10.687112967559415
1471, -0.09650915013412487
1472, 19.731937305911288
1473, 36.148140490782
1474, 22.80203708256795
1475, 18.444498006132562
1476, 28.72222623404582
1477, 20.74267431502426
1478, 7.233568651462065
1479, -1.9322219194900754
1480, -3.747967724714499
1481, 10.773593345840709
1482, 39.21252246054269
1483, 34.44854869081746
1484, 11.975076681740575
1485, -4.971630214512061
1486, 2.899979357565826
1487, 18.666614012917307
1488, 20.75393116544865
1489, 21.56660618858973
1490, 17.569674650599154
1491, 3.6216032538127365
1492, 7.10168765698586
1493, 17.184906998064434
1494, 6.757672318147115
1495, -0.7319122176600104
1496, 1.3713258681000298
1497, 13.782005316677441
1498, 24.00768685401431
1499, 27.404993159959304
1500, 22.90767199578454
1501, 9.502621687141072
1502, -5.807975949451247
1503, -9.254638844126475
1504, -12.727830988860205
1505, -13.494013103487077
1506, 10.622060152051517
1507, 31.364660948402843
1508, 34.61816166303356
1509, 28.34040358275388
1510, 28.55751120455534
1511, 39.29696885555563
1512, 46.14749090335681
1513, 33.242557377025605
1514, 0.767285141966795
1515, -19.69622004094049
1516, -14.931729286759264
1517, 12.359832013827372
1518, 23.385383954140025
1519, 30.69006326055569
1520, 43.120070817394435
1521, 49.19917444271596
1522, 50.31212134706743
1523, 47.32022976194389
1524, 36.547286866694094
1525, 28.867768103996696
1526, 28.52317404620726
1527, 19.98709420427872
1528, 5.601929381690979
1529, -7.772175564837653
1530, -7.061143185612309
1531, 4.204678846095021
1532, 20.223823010949218
1533, 26.98652074645679
1534, 21.719039314719566
1535, 6.141222819727545
1536, -8.340839556557967
1537, -10.111547370705694
1538, 1.8477268986437139
1539, 1.75704246003329
1540, -0.7794931742914741
1541, -1.1418238642436336
1542, -10.829787482879738
1543, -10.402717235080218
1544, 5.652359908856852
1545, 12.273398748190175
1546, 17.759944015054316
1547, 22.36613759048828
1548, 7.141399093992277
1549, 5.095458668459969
1550, 21.33341536492344
1551, 19.44020259284366
1552, 11.490478613043933
1553, 4.716883456415189
1554, 0.927014243156691
1555, 5.345760207171679
1556, 14.349246918851804
1557, 12.213139388406944
1558, -1.9866791279666813
1559, -17.11532559159673
1560, -12.908774537959289
1561, -16.017736802037007
1562, -23.1870532008611
1563, -13.568322485007457
1564, 3.7614080246639787
1565, 20.37356305040157
1566, 24.784039335512716
1567, 16.401224105924257
1568, 9.049518171389082
1569, 17.67897117824441
1570, 44.06583425728172
1571, 79.09710899015931
1572, 105.20090216814151
1573, 117.30282922974425
1574, 133.85582351927246
1575, 162.3397917513571
1576, 167.24358241803657
1577, 181.3628853051623
1578, 214.65525246665993
1579, 219.0244441104769
1580, 217.35057172491543
1581, 212.18678913515623
1582, 175.12396455616954
1583, 161.40803147211477
1584, 167.4586836896931
1585, 138.414555719693
1586, 98.97528640747737
1587, 58.36429924871322
1588, 26.75758473835549
1589, 26.689455299699148
1590, 31.439077287292548
1591, 5.41381268493592
1592, -6.092113160996632
1593, -5.616117664006424
1594, -2.2435157555191836
1595, -0.5291576667973459
1596, -8.893550157429672
1597, -23.9288219818543
1598, -17.709966720193506
1599, -10.821800851568469
1600, -10.465926252833015
1601, -9.312893399901213
1602, -1.6160792751043118
1603, 11.760440164529427
1604, 23.33987386901299
1605, 16.02308498389084
1606, 9.744801177232148
1607, 26.13129159676032
1608, 26.06706568929667
1609, 17.45130621624162
1610, 8.180533878271262
1611, -10.020627666939617
1612, -5.835119717319685
1613, 16.922038885165193
1614, 5.682178641744258
1615, -5.077757679705655
1616, -2.1985179421164958
1617, 15.068480339156622
1618, 29.734139915779906
1619, 30.36097227735422
1620, 12.795611111329663
1621, -1.96880852365598
1622, -3.9181946030428207
1623, 2.4757137031344882
1624, -10.834257409586144
1625, -9.336258571318012
1626, 12.963764444778235
1627, 32.962654534130024
1628, 36.650424120156
1629, 24.19461008457324
1630, 4.799108325261159
1631, 3.933294209046835
1632, 8.400440829269428
1633, 8.96912619773002
1634, 18.462333518137257
1635, 30.29078112903062
1636, 37.601888478472574
1637, 31.977854336082828
1638, 7.967823958904546
1639, -8.649779331991567
1640, 7.001689198643362
1641, 11.837113463444894
1642, 12.335912252941853
1643, 11.400177873116263
1644, -13.667608446777194
1645, -13.847866178057984
1646, 4.891702921856222
1647, -5.500654078951129
1648, -6.550474592417231
1649, 4.0991630278251705
1650, 18.076110863784834
##END=



