##NAMES=
##LOCALITY=
##RRUFFID=
##CHEMISTRY=
320, -11.504537719307336
321, -7.3307034737499635
322, -4.234402259302442
323, -1.0480364487048064
324, 3.940786764396762
325, 13.677477480790913
326, 28.277184852748178
327, 45.711890803320784
328, 62.42465106741838
329, 74.70916158803811
330, 81.77379564492549
331, 90.34564667024824
332, 104.11605280853291
333, 116.09219081197807
334, 117.42444445665387
335, 112.70906221388759
336, 114.69372846115766
337, 122.1137351826037
338, 122.57078167506188
339, 114.463230188936
340, 107.90349034292194
341, 106.72929687980468
342, 102.6738817798796
343, 88.935173267133
344, 69.17170337931566
345, 50.15750816142099
346, 38.577432030686396
347, 39.21560967625555
348, 51.11916503735847
349, 55.224482178100516
350, 48.26829613559494
351, 48.01633808106817
352, 68.42452857788703
353, 89.10811791586275
354, 92.42441306473847
355, 84.03614027367075
356, 77.56671821390592
357, 70.59249472687952
358, 47.86221094277607
359, 9.593895505422552
360, -12.97280445454453
361, -12.965081726963035
362, -2.9403685250563285
363, 10.217191480707697
364, 24.23646867817115
365, 33.18181745257971
366, 37.522142788448036
367, 38.64872502889193
368, 36.823393230757574
369, 33.09870242487341
370, 27.896409850558484
371, 25.1261711315492
372, 26.091121811525227
373, 26.133462351732305
374, 22.042820909784496
375, 13.695707344340917
376, 0.9105241887864395
377, -13.639205112514901
378, -23.84914856391697
379, -29.798343324508096
380, -29.31313644781585
381, -22.197293861956496
382, -12.745045199451852
383, -1.7657338021326723
384, 8.356947718910305
385, 15.440867710987732
386, 18.970574275792387
387, 18.217880610445718
388, 13.140489364437599
389, 3.636151481019624
390, -8.262482540190831
391, -14.522070526289099
392, -14.826895890659216
393, -15.351980173365519
394, -18.007476484450308
395, -19.63502455235175
396, -18.35541941237716
397, -15.28020937585461
398, -11.60106953970353
399, -7.032100899439683
400, -1.3019788791061728
401, 4.2591519489760685
402, 1.710276012418035
403, -8.54332775543844
404, -11.252060856209937
405, -2.7702537395725813
406, 12.396967865335682
407, 33.23032545458227
408, 59.0205268785121
409, 83.89988160225403
410, 105.67211723211585
411, 120.41831548058872
412, 128.59114540578776
413, 131.94145231488437
414, 130.48136281955522
415, 123.39846778717583
416, 111.21805974752897
417, 104.22193864707151
418, 116.28927847655905
419, 134.20584738237994
420, 156.23724675698213
421, 176.1888247219922
422, 186.6133756549607
423, 187.05699825243937
424, 176.54571075570857
425, 155.5878212105199
426, 126.3783145147172
427, 91.30255626676444
428, 67.46057318061139
429, 64.55134901371275
430, 67.54083756717955
431, 64.26396544773343
432, 63.20341161421493
433, 70.3197120547502
434, 71.82373833546626
435, 49.389539126572345
436, 15.530279272461485
437, 1.7298849567760044
438, 2.9996280058876437
439, -1.1369191070007219
440, -11.39458297431338
441, -12.551709290035433
442, -2.122884155538486
443, 1.95086728818751
444, -7.098197214176253
445, -8.132212622442239
446, 13.697491559767514
447, 43.643029590888545
448, 59.21143016477981
449, 64.3416626869166
450, 67.77532919083387
451, 69.85206436508815
452, 70.69495406260467
453, 71.00405653226153
454, 75.49029970944503
455, 84.39674283564636
456, 88.21322505057105
457, 83.8916193931509
458, 76.61007198531297
459, 69.27410855874041
460, 58.38458494313272
461, 40.498281756375945
462, 20.66676880230807
463, 9.675059734898241
464, 3.4070542130084505
465, -7.918287254209645
466, -23.0110841489859
467, -28.626962035819815
468, -24.088638682540477
469, -15.74929236501157
470, -4.4158142714550195
471, 10.939480252925932
472, 31.645459722511077
473, 40.31459798849028
474, 26.137106729805964
475, 3.4683667445187893
476, -10.87234231988623
477, -16.031097824363314
478, -8.167511536563325
479, 10.36898000909423
480, 31.31797191883561
481, 50.94691516930834
482, 59.06524188032017
483, 55.23906251968947
484, 49.01219503064749
485, 42.77348092898683
486, 37.52617783191272
487, 33.66303695451279
488, 30.75538993358532
489, 28.530700236540724
490, 21.723031545159756
491, 4.751893097483844
492, -12.368512071136138
493, -14.799874382963026
494, -7.129011651062683
495, -1.2942488483295165
496, 2.0176097076127917
497, 0.7635666404221411
498, -4.802177519843099
499, -10.44297258986444
500, -15.53192768671397
501, -17.38334621629474
502, -15.242318558706756
503, -11.72789745146656
504, -7.900276708531237
505, -5.249724146236986
506, -4.968006818129652
507, -3.2957305318959698
508, 4.649172329469366
509, 15.154244561750602
510, 20.369977428768834
511, 25.682008073423276
512, 46.933460533118705
513, 84.04671228181724
514, 117.32008872718325
515, 144.0433650665491
516, 158.02116362807828
517, 158.16312147467943
518, 147.00942931954341
519, 125.95443504756622
520, 113.50719357108392
521, 118.35532255110047
522, 122.24395548596112
523, 112.06402732060997
524, 92.5768342916981
525, 69.12404775535288
526, 42.89545021750382
527, 20.204591868758143
528, 2.320176577555685
529, -3.7130059482569777
530, -0.10476839331749943
531, 5.924174378071257
532, 13.847297657492163
533, 22.12562199936292
534, 32.07337603287306
535, 49.183673292431195
536, 73.70388110284148
537, 79.70718042285444
538, 58.815712751584215
539, 37.81528934929884
540, 30.200154082251174
541, 19.809213451078904
542, -3.3122858792376064
543, -19.71350329584311
544, -6.91740302616563
545, 19.12723032455142
546, 32.98963579552583
547, 35.81798209378758
548, 35.61843754916663
549, 34.760095079145685
550, 39.969308195206395
551, 50.15271010059587
552, 57.65728331175342
553, 60.58842950221151
554, 52.5603685894348
555, 33.29825150161378
556, 13.40984101624963
557, -2.5168827627803694
558, -10.016309340695443
559, -7.53705462704238
560, 3.2177113278503384
561, 22.20308991348793
562, 34.21352375800598
563, 28.054989800795738
564, 20.311721988946374
565, 28.868873410843662
566, 36.687234541568614
567, 17.86803810805577
568, -11.485986543728359
569, -18.378114413406365
570, -10.045397014981063
571, -7.226347470270412
572, -7.686021889516269
573, 1.1465864386227622
574, 17.84820295069585
575, 23.27158342034818
576, 16.047218535433785
577, 7.155570183018426
578, -0.15676963512669317
579, -3.7778593922939763
580, -3.0709690596268047
581, 5.682608172719483
582, 24.37843939058621
583, 39.4165639968669
584, 44.259862279706795
585, 38.71266883278804
586, 22.650620319318477
587, 4.459667010096382
588, -7.887857094874562
589, -13.760592902639473
590, -11.46509722851988
591, -1.388949169397165
592, 16.46733360228609
593, 35.120084847074395
594, 39.54282232470905
595, 32.95339550905919
596, 25.48204021296442
597, 17.811699894900812
598, 10.315788183268523
599, 5.630670031778209
600, 10.52991697050129
601, 23.38558947841375
602, 24.760945543752314
603, 12.9669360110056
604, -0.3289070919399819
605, -11.867570782469556
606, -14.675454430547688
607, -7.596859639126706
608, -4.966972866464857
609, -11.33161230235055
610, -9.98325832032242
611, 6.755707174725103
612, 22.675564603183375
613, 26.979448381853217
614, 30.113228630889353
615, 39.56091033294251
616, 44.867393634131076
617, 36.51764007476049
618, 25.691081857201425
619, 25.38902058074018
620, 28.562848582541847
621, 24.906285311029933
622, 16.99812911060144
623, 9.644418772322751
624, 2.9963647196418606
625, -5.621699512877967
626, -14.576918761658817
627, -17.86835140698713
628, -13.545934058282
629, 5.029126116514817
630, 35.01941588186128
631, 55.36271721187768
632, 64.67683116207445
633, 66.53541038809999
634, 63.0223986864421
635, 63.718507184590635
636, 68.73682605951399
637, 67.24009055758142
638, 57.145550263960104
639, 39.456743381146225
640, 15.694838606386838
641, 2.612549267229042
642, 2.6497672912501002
643, 5.425603603782292
644, 7.47902338899803
645, 5.359343947080561
646, -2.263103288840284
647, -5.158366661491527
648, 1.448900937637518
649, 12.371339612738666
650, 24.149165520602764
651, 28.618181290226858
652, 20.61714591638338
653, 13.896304510646587
654, 20.099773443140293
655, 29.628884574511176
656, 35.33569539065138
657, 31.818157390773194
658, 13.572052590172461
659, -6.388513073288777
660, -16.250477857332953
661, -15.017146006992334
662, 0.1089974434726173
663, 23.53267874031735
664, 44.16988823372958
665, 57.668765029688075
666, 56.60232024646757
667, 45.30839324455883
668, 32.6420386567097
669, 21.02208438647358
670, 17.376169793162262
671, 20.306824069892173
672, 25.095778789314863
673, 28.479301910538197
674, 21.898696487638517
675, 9.108880642301301
676, 3.875628489206065
677, 3.357807353258977
678, -3.179493556393936
679, -13.872862279064066
680, -17.392963379501452
681, -14.031441490653378
682, -7.829928547307645
683, 1.974893424749098
684, 19.020480360195506
685, 41.24316346980413
686, 47.10376327605991
687, 38.46421535814079
688, 38.58094034489113
689, 53.61805254385217
690, 73.70882948861254
691, 94.58747569322622
692, 95.8118389952906
693, 77.45390421239244
694, 63.28396951803006
695, 57.04898548493293
696, 54.202103542260375
697, 52.9625482447409
698, 46.5197366374814
699, 33.30496497565582
700, 12.173455271778948
701, -13.234408589692976
702, -21.899943561886175
703, -11.63346920780532
704, -4.4060548286634
705, -4.348657695236398
706, -3.624507508442548
707, -0.35033196583208337
708, 3.7672147157754807
709, 8.71714922107276
710, 16.29065301679475
711, 25.160580032792495
712, 26.03532748928228
713, 17.168616665707304
714, 9.087092778965598
715, 6.722086012116051
716, 21.66833508291893
717, 56.30814603741783
718, 75.45968096646357
719, 69.85030969530453
720, 48.28941416624548
721, 15.001293683011681
722, -8.536383748356457
723, -18.076557079821214
724, -8.681839170960302
725, 20.03384471552272
726, 37.64725094829191
727, 35.36764120127009
728, 24.95605131836055
729, 10.520122402042034
730, -0.7167974355634215
731, -7.803886612206043
732, -9.113004149236076
733, -4.658334964316964
734, -1.2956829085360368
735, -0.5366370231713518
736, 1.624233374299365
737, 5.8771345705990825
738, 4.268908555141024
739, -4.166967709285927
740, -5.923679240917409
741, 1.5118536747713733
742, 6.478239651837612
743, 5.554708852298063
744, -0.6479697396389383
745, -10.884303213361818
746, -15.22520524985157
747, -11.945852198871762
748, -5.731456417302979
749, 2.4657183019216973
750, 10.227518069597863
751, 15.717561312008911
752, 12.186349030026577
753, 0.4198133121271894
754, -3.2476924513075573
755, 2.2181764007837046
756, 4.645934790952197
757, 2.224852546870352
758, 0.22751469393824664
759, -1.5335694359864647
760, -8.30488743292608
761, -17.428270552838512
762, -7.514701940413033
763, 20.30787132637579
764, 39.981289116929474
765, 49.07322554768598
766, 52.98377877895837
767, 49.86194736271773
768, 29.308539515275697
769, -0.4194605044576747
770, -3.8455697226036136
771, 13.38558427046246
772, 22.938739695418008
773, 24.287434700444464
774, 27.88480406506187
775, 28.84486804281005
776, 11.195677489432455
777, -10.418934259731031
778, -1.1234517007733302
779, 23.337298990046293
780, 20.51014499113444
781, 2.930350328286295
782, 0.1571888313646923
783, 4.980796127239046
784, 3.5519486939210765
785, 4.091322959563513
786, 20.750054110976635
787, 34.024082856802124
788, 16.30256359588384
789, -2.716892101142548
790, 10.413713423265108
791, 39.10787761962274
792, 62.85236225531571
793, 76.2774533824695
794, 74.43079613830378
795, 60.58626163575718
796, 37.48267474839395
797, 21.180197066528308
798, 24.579198415104656
799, 37.845119651422465
800, 52.13688693623226
801, 52.1669335218121
802, 31.116318280475753
803, 10.941598270735994
804, 2.064985971233
805, 0.7385654304316631
806, 5.430995587974394
807, 12.013109999522385
808, 17.892412830558897
809, 16.778688207700725
810, 8.675340692006102
811, 8.139287587805484
812, 15.448116921304063
813, 12.017011397955685
814, -1.860591092334289
815, -7.4390247656119755
816, -3.7299891430066054
817, 4.13418959226874
818, 15.792230862693032
819, 29.018014510435023
820, 37.73520274559087
821, 24.343980322191783
822, -1.0350502171868357
823, -10.80086283285982
824, -9.072053018606312
825, -4.565384079186515
826, -0.6518580193060188
827, -2.8106413943560256
828, -6.467652699056998
829, -5.518267139036652
830, 2.1851690382491142
831, 19.51437578162495
832, 34.11583891070313
833, 36.016980871474516
834, 29.78597319086657
835, 18.58705283355357
836, 9.407701916253245
837, 6.62328318292748
838, 4.862875492767671
839, 2.054923537833929
840, 1.371684122798797
841, 3.827736813719639
842, 8.992617445923315
843, 16.982825692384722
844, 25.24338393166454
845, 30.86562487592164
846, 19.512399564526277
847, -3.6480010481736826
848, -7.517993882934206
849, 6.197316654179303
850, 22.803342134048762
851, 35.4205137987783
852, 31.271114737173775
853, 13.443604306752604
854, -10.678969357409187
855, -29.24618056926829
856, -24.77975913588307
857, -6.272122506166852
858, 17.06178861238277
859, 30.36585058198216
860, 20.767221641901415
861, 3.0571879515737237
862, -12.732683195874415
863, -16.16302627987352
864, -2.6802992252305557
865, 14.404306649487808
866, 30.96581226893977
867, 39.914571483790496
868, 40.5557355044557
869, 39.01042906756538
870, 35.92652033317154
871, 28.327203750769513
872, 17.558953432308954
873, 10.28201351932421
874, 7.68157789657289
875, 8.1599449159703
876, 7.404218914716694
877, -3.459622968685835
878, -17.258486862697282
879, -22.55240872845752
880, -14.403912493337884
881, 13.65778193515871
882, 46.95568961114077
883, 70.60339883406505
884, 69.33315113796198
885, 36.31642793501942
886, 0.885093665234308
887, -23.470587802263253
888, -17.801633593619954
889, 18.127606459971503
890, 41.534368522708064
891, 44.86442749952403
892, 45.32292233897442
893, 44.4161072429597
894, 39.37450578609787
895, 33.97816395510472
896, 38.00762784935796
897, 43.25191553689274
898, 34.786731196965775
899, 19.093238283541723
900, 6.15697713066038
901, 4.571005759172294
902, 21.583183896377705
903, 32.978300422582834
904, 26.39556838562021
905, 16.114390749569793
906, 7.760243403477034
907, 3.517523860991787
908, 2.9442302223997103
909, 3.4645516928294455
910, 4.145457683643144
911, 2.787729629872956
912, -0.031057402426995395
913, -1.813898852323291
914, 3.727235574840961
915, 29.52106359192021
916, 52.416569494700525
917, 41.860929509305606
918, 16.020741219564115
919, -7.492273220643256
920, -12.697276401232557
921, 8.892427475839213
922, 33.51959310475468
923, 50.11921961407188
924, 55.768149615055336
925, 50.808401152677106
926, 41.58730593097971
927, 33.485399528595735
928, 46.173466472001564
929, 66.27346830405531
930, 65.07027073161953
931, 52.58498590200634
932, 47.38884703033909
933, 42.3006300215111
934, 29.654023868938566
935, 16.311005330466287
936, 8.067680517544431
937, -3.449485787584308
938, -20.366842768713468
939, -19.874544142870946
940, 0.2775789831093789
941, 13.958819041240531
942, 18.00216395717416
943, 18.893757442590868
944, 15.650782774596337
945, 4.3208457015552995
946, -5.7266508375332705
947, -1.2743131515444475
948, 9.433746199482812
949, 19.05558908681178
950, 27.8214537961494
951, 36.2219680803164
952, 40.72041829443151
953, 39.65180689398403
954, 29.94609398272405
955, 13.35065336928983
956, 3.321089710918386
957, 1.1794522687205244
958, 8.785460439630697
959, 21.09230072686205
960, 26.003766686362724
961, 18.57576930308369
962, -6.318984955442829
963, -25.901268328864717
964, -26.788375152798835
965, -17.091250557639796
966, -0.5826932251629842
967, 10.438606761425035
968, 12.398328482912802
969, 4.619478104322297
970, -6.553676675469433
971, -3.70467764242494
972, 6.995708567283145
973, 11.281149416736298
974, 8.553181744434369
975, -1.307415684622356
976, -5.095373085645406
977, 4.748208740932569
978, 19.60157769410762
979, 33.46762611910799
980, 30.727380830633592
981, 13.053722928821117
982, 3.7205495862253883
983, 4.5504716827636
984, 12.004164901074546
985, 16.761724490575943
986, 5.372059220892879
987, -8.258576756283219
988, -13.839154655689526
989, -13.394935680454182
990, -7.472206815769823
991, 6.124148761688957
992, 23.90876205062068
993, 14.604948209063878
994, -12.543311593507497
995, -13.188141823076876
996, 5.440326793573149
997, 25.446365780864653
998, 48.00975368235868
999, 70.00967352907628
1000, 81.61815376412596
1001, 78.8121158078111
1002, 83.23160965830175
1003, 97.2361636550877
1004, 91.22958637641841
1005, 63.10789909302821
1006, 23.66108279598211
1007, -8.609297829656498
1008, -7.4353545676021895
1009, 16.285213341480812
1010, 52.007379769476756
1011, 70.80862003194488
1012, 59.61805837823704
1013, 49.13399704463973
1014, 48.66236710230896
1015, 56.18678746331443
1016, 65.82618498291868
1017, 59.914087040146114
1018, 42.172720401035804
1019, 21.46824523331452
1020, 17.116944558564683
1021, 43.16761996451896
1022, 60.30430417068783
1023, 51.44985065375204
1024, 29.82892128392814
1025, 3.3702001458214
1026, -6.090702081864038
1027, 0.4718435917811803
1028, 16.26530752475992
1029, 34.3632491578046
1030, 41.923662966833945
1031, 40.76272935034467
1032, 32.87967002901496
1033, 30.621407400408316
1034, 34.55367022610335
1035, 16.809963019808492
1036, -14.132879106971814
1037, -19.38711598127611
1038, 0.053182250235295214
1039, 38.779825104164956
1040, 72.60691976183989
1041, 79.60404400439984
1042, 60.946605003107834
1043, 20.299474345400995
1044, -11.603300735493576
1045, -27.89255152413898
1046, -17.0559565991216
1047, 5.137463510510315
1048, 0.9065335440654962
1049, -17.646238215403173
1050, -36.734295816309896
1051, -41.95992639450287
1052, -26.99191924589377
1053, -10.998077719864341
1054, 0.29925328771423665
1055, 0.2536402220976015
1056, -8.989673327291712
1057, -20.896840123916263
1058, -25.681118418677215
1059, -11.808918756999446
1060, -5.986851615514752
1061, -20.561665540663853
1062, -24.54766203230247
1063, -10.027976111567114
1064, 20.452412147364157
1065, 65.68449131651505
1066, 121.41228080454039
1067, 163.48287596541832
1068, 173.33154444234333
1069, 196.16913243388808
1070, 270.9073313392755
1071, 327.8871812959205
1072, 362.87693721596224
1073, 414.65266102196074
1074, 473.707374968938
1075, 510.5313338897604
1076, 539.0361207255146
1077, 572.1643854454242
1078, 559.0816568231985
1079, 484.53045634042974
1080, 416.6109521561393
1081, 368.4420991378993
1082, 332.88109236241235
1083, 293.7756791621814
1084, 224.42177860169886
1085, 140.25114013722668
1086, 68.87192961349683
1087, 25.47724101015774
1088, 11.530367116078196
1089, 11.55434900457476
1090, 15.228968662912848
1091, 1.207058630156098
1092, -26.730011544462286
1093, -62.5440271150901
1094, -74.46892317773018
1095, -48.08642159088231
1096, -23.24476385442813
1097, -6.780164200344188
1098, 10.241255238142003
1099, 16.546346674630513
1100, -11.79539686643966
1101, -35.096547463163006
1102, -23.475666552085386
1103, -9.252264820826895
1104, -1.888277413590913
1105, 8.959439174942418
1106, 18.79864994885247
1107, 11.350681376907232
1108, -0.02357091966223379
1109, 0.9004373987318104
1110, 3.143423796688694
1111, 2.582329916548588
1112, 9.132605579928168
1113, 22.44242288501391
1114, 30.62742151916791
1115, 32.04768384527779
1116, 25.753832203060483
1117, 25.714909248162257
1118, 38.64112441417819
1119, 40.39059992950388
1120, 26.91698082683888
1121, 9.700570191482257
1122, -5.814690090212935
1123, -15.266194241908124
1124, -15.181430564870425
1125, -3.4818993318995126
1126, 3.6848474562466436
1127, 2.6223235620345804
1128, -0.3967085432532258
1129, 1.8050187930684842
1130, 23.27180386272812
1131, 40.86152587611741
1132, 35.72380884951781
1133, 29.134822906186855
1134, 32.043291471663
1135, 46.219909724604804
1136, 67.50056755639798
1137, 93.24035208158512
1138, 104.69137276878337
1139, 86.719510706248
1140, 74.3346196383145
1141, 77.21224181097477
1142, 75.58174388352018
1143, 67.80051654665476
1144, 56.950405751424114
1145, 29.51433370965333
1146, -20.181711642881965
1147, -29.778651495362283
1148, 12.659174954284026
1149, 47.3846826720046
1150, 63.35591376692264
1151, 59.637863617782386
1152, 36.52131534527871
1153, -2.801420400205643
1154, -12.972692348286728
1155, 9.367278367752988
1156, 12.768992838949998
1157, 0.5189136254202822
1158, -5.757280147583515
1159, -3.937696029312974
1160, 7.029529792499488
1161, 18.851421881483475
1162, 23.62907924902538
1163, 3.621965802110026
1164, -20.781061187233718
1165, -16.69746149097591
1166, -2.421631601278932
1167, 10.73962711380591
1168, 13.337976039725618
1169, 6.105573448083305
1170, -0.3267171939733089
1171, -0.7933055922449057
1172, 10.87135907231459
1173, 28.16679977162039
1174, 44.30451145878396
1175, 45.79909573117584
1176, 38.43484142942816
1177, 42.63306614992416
1178, 45.804126528676534
1179, 36.64525776733444
1180, 35.73717128617591
1181, 44.15737793859262
1182, 33.21745374053535
1183, 14.00762224416576
1184, 13.725196137566854
1185, 6.951897152163838
1186, -18.726384957201844
1187, -21.053598220125423
1188, 2.666703410426635
1189, 29.603287594072754
1190, 48.075339794770116
1191, 46.74333479191955
1192, 24.999813972808624
1193, -9.95572673976676
1194, -17.934220889844255
1195, -4.953798427512993
1196, 6.775519805514705
1197, 8.485884252865617
1198, -3.961797362145262
1199, -7.514444517571064
1200, 4.356091040141109
1201, 34.15848583180832
1202, 61.47027720701317
1203, 62.56097183586189
1204, 57.35799854186371
1205, 53.9354168372538
1206, 49.70560831865987
1207, 46.4721301140753
1208, 48.33206567423895
1209, 39.258299246234856
1210, 12.605063891698592
1211, 6.905122535044939
1212, 23.142391025615325
1213, 41.104500883086985
1214, 51.257534925390246
1215, 47.22473966160851
1216, 22.686927125790135
1217, -14.609554527671207
1218, -22.601574530736798
1219, -6.43874235059684
1220, 20.408506128205772
1221, 36.605180676026976
1222, 33.72752983394912
1223, 29.794782024132473
1224, 25.285845584591698
1225, 14.29033455996887
1226, 1.3771263690159685
1227, -9.627428403359772
1228, -17.355529009163547
1229, -16.794382799502273
1230, 7.31679639221511
1231, 26.87982356179964
1232, 12.309098213792822
1233, 0.8475638486188473
1234, 2.2665134373874025
1235, 5.812028440182985
1236, 13.491872249242988
1237, 27.381361504588313
1238, 23.126928028792463
1239, -0.784987360993
1240, 0.50686017145199
1241, 20.74294791336706
1242, 38.3703645112937
1243, 39.78617463652972
1244, 21.885930504937278
1245, 9.898094397587556
1246, 7.439347806611295
1247, 10.521015346345848
1248, 17.779473783221874
1249, 25.12993285466291
1250, 16.628031616861335
1251, 4.428862422108978
1252, 20.711114619820364
1253, 47.212386035039344
1254, 65.79107008447863
1255, 77.01589231276284
1256, 79.58347684418459
1257, 69.55390903238003
1258, 61.03164919763458
1259, 63.90683697245731
1260, 51.334877134378075
1261, 24.72432452992507
1262, 13.298877277459724
1263, 7.2508537975609215
1264, -2.090255316315961
1265, 7.512390362412589
1266, 34.40309206042639
1267, 47.02677477317047
1268, 55.51382523614393
1269, 70.33106613523705
1270, 63.69391431350505
1271, 33.89242310030568
1272, 4.144908779723664
1273, -7.421006457675503
1274, 11.506872374601699
1275, 23.768467551854883
1276, 20.52923397937684
1277, 17.251440760534024
1278, 8.050345259168353
1279, -11.010949066709145
1280, -9.242612711886068
1281, 13.015987825669981
1282, 22.71204496882001
1283, 22.888437045947285
1284, 19.158813921793808
1285, 13.902673296925968
1286, 6.89418958697388
1287, -3.934766298564682
1288, -11.669770530497772
1289, -10.463068301441126
1290, -6.671368159945814
1291, -0.33289698820499325
1292, 12.71544551016541
1293, 22.661426300895073
1294, 21.66049648758508
1295, 10.027160134603037
1296, -3.0016419461253463
1297, 3.9514213349211786
1298, 8.291582349380406
1299, -3.628641112119112
1300, -9.671172879710866
1301, -5.141675102194313
1302, 11.96833071227229
1303, 37.929562833192904
1304, 62.81779259060477
1305, 53.94699806683548
1306, 22.224367367135528
1307, -4.726757446887859
1308, -8.428878358914517
1309, 11.770922062252794
1310, 23.830968397954166
1311, 18.156114822033487
1312, -8.549347615899933
1313, -18.34853704379202
1314, -2.383850465714204
1315, 26.226219812429918
1316, 48.94136273998993
1317, 48.89465724415277
1318, 29.497207303306823
1319, 0.9662573376663204
1320, -12.139131216571514
1321, -13.138735179246396
1322, -5.429268204297841
1323, 4.907868854378648
1324, 18.532184654362936
1325, 36.508741973253564
1326, 45.619627250748636
1327, 39.5615540293702
1328, 20.554114864100484
1329, 2.9620467726826973
1330, 5.617168160560141
1331, 21.00494626370255
1332, 37.57333551304782
1333, 28.183546199050397
1334, 6.7429844433590915
1335, -10.44186655316389
1336, -12.037153751958613
1337, -0.6783881357232531
1338, 12.050230485376233
1339, 12.357890510308607
1340, -0.8783663285194052
1341, 7.457398287409887
1342, 28.900227665103557
1343, 41.833542545053206
1344, 46.243487490507505
1345, 39.16366630675293
1346, 10.602475564475753
1347, -8.537712957341682
1348, 1.0152215798734687
1349, -2.0549736880830096
1350, -10.259415449254448
1351, 10.160859488970345
1352, 29.988350776348852
1353, 37.596969298329896
1354, 59.93274709085745
1355, 74.04185758329913
1356, 51.21039407975513
1357, 25.309547858498263
1358, 13.459817940612083
1359, 25.798109888003637
1360, 35.93266945762389
1361, 29.51527923827325
1362, 20.365006958610138
1363, 9.07178817060958
1364, -4.274809925259433
1365, 7.8173750967171145
1366, 35.362681588312626
1367, 10.076221691015235
1368, -18.373216119730387
1369, -14.84779728644753
1370, 1.2924227399989832
1371, 23.924722095596735
1372, 45.160713246642445
1373, 41.85148451806526
1374, 16.085829084334364
1375, 6.150803873197219
1376, 4.95643262980866
1377, 3.2002703233065404
1378, -1.690449857839667
1379, -5.032624640718495
1380, 2.164159899501101
1381, 12.265193662755337
1382, 22.47270343299897
1383, 30.31222644882564
1384, 36.43246445508794
1385, 39.88812022174534
1386, 30.027331308062458
1387, 16.493858191782238
1388, 18.905978552197666
1389, 19.776903759916422
1390, 16.122377203506403
1391, 17.007428739995703
1392, 10.295216241855996
1393, -5.564710811587247
1394, 5.416154062713758
1395, 27.657943398365205
1396, 29.825799554601872
1397, 21.50268946263259
1398, 7.400311887670796
1399, -7.282214493620813
1400, -6.675321483792686
1401, 11.765397657677568
1402, 15.32068276197242
1403, 8.683872900629467
1404, 1.3818707255850313
1405, -5.271817784302584
1406, -4.61463376561187
1407, 15.639875857464176
1408, 24.329367710283805
1409, 14.726161340480758
1410, 9.53891785324413
1411, 2.474069680285538
1412, -8.19547895744654
1413, 0.15130155791302968
1414, 16.019024155113584
1415, 19.198140044346474
1416, 25.08914088529218
1417, 30.314338161377236
1418, 17.79008529301973
1419, 4.114351293378604
1420, -4.153180697379867
1421, -15.753802317233749
1422, -18.036704507264403
1423, -4.48510872712086
1424, -4.60501387104523
1425, -8.569366411067676
1426, 2.2333774091966916
1427, 7.66534508467339
1428, 8.134137430924966
1429, 18.068888247728864
1430, 22.152815149592243
1431, 15.243031116636303
1432, 4.746296945175345
1433, -0.42908959580381634
1434, 1.7184359228394896
1435, -5.729251072491934
1436, -7.849351555990324
1437, 12.657593949486909
1438, 21.230506128822526
1439, 21.49115056415758
1440, 33.48855999727493
1441, 20.379554060283226
1442, -11.490132158473898
1443, -9.434714472048654
1444, 9.631451901314904
1445, 34.257737605348666
1446, 54.120129805159195
1447, 47.51425420001124
1448, 8.68875709081567
1449, 5.736030937668147
1450, 23.4673000358398
1451, 29.73943495598087
1452, 30.793570734175773
1453, 26.930169218207993
1454, 17.351800371215177
1455, 28.044762842331693
1456, 47.56834911419992
1457, 31.40242083598514
1458, 17.89266572226461
1459, 23.234957284189477
1460, 26.481955918919084
1461, 20.769480339038637
1462, 3.885956700168208
1463, -17.293056687078206
1464, -22.88974822340697
1465, -0.061368084106106835
1466, 8.986372932352424
1467, 6.564719472015895
1468, 6.100756593134065
1469, 16.968809019181208
1470, 37.39199645811823
1471, 55.949670580174825
1472, 63.68183425114694
1473, 58.358785558400996
1474, 42.417409625279106
1475, 36.6775474222477
1476, 42.70619969757445
1477, 39.35224284008655
1478, 32.28191751227678
1479, 25.90055481262243
1480, 24.929387930685152
1481, 32.40891505914806
1482, 47.14732365270993
1483, 65.75704552926982
1484, 66.29802650919464
1485, 35.27180571535882
1486, 2.7134619610205846
1487, -20.272178302223438
1488, -28.519087878207756
1489, -15.661755754258593
1490, 12.20954313546099
1491, 42.8932714892826
1492, 45.23286781610477
1493, 26.596168227418275
1494, 10.528219501914464
1495, 0.22402098309612484
1496, -0.44271163317444007
1497, 15.205366919473818
1498, 25.665040146758656
1499, 24.049883182790836
1500, 12.143514049523219
1501, 6.389753707507225
1502, 9.776887713341694
1503, 11.66479566522321
1504, 6.158522701552556
1505, -3.556531426643687
1506, -5.044630963052441
1507, -4.515131302882764
1508, -1.2957990518966653
1509, 16.541354634315212
1510, 31.71396007222711
1511, 37.593171110288495
1512, 44.34737754737898
1513, 41.382148152053105
1514, 22.45908655319954
1515, -10.531056535951848
1516, -19.631477338721652
1517, 6.475860357202237
1518, 25.029298708564056
1519, 39.725367252538035
1520, 50.347230291145934
1521, 33.10396691324513
1522, 11.158836184399206
1523, 2.1038604668906373
1524, 0.6398255707304088
1525, 4.578295062361576
1526, 10.849439838520993
1527, 8.951689055137194
1528, -4.316989566092161
1529, -22.78659776036693
1530, -14.086021216880454
1531, 5.835783915965749
1532, 23.5427299826938
1533, 35.20034047943136
1534, 34.774374215269745
1535, 21.75344687242068
1536, 10.265982971620815
1537, -1.7137786918847269
1538, -14.438739312226517
1539, -13.245079404681746
1540, -2.809882694091357
1541, 12.936398139755056
1542, 30.885025275240878
1543, 28.60345438241302
1544, 4.700090525448104
1545, 1.7732489845670898
1546, 2.662856962377191
1547, -1.5905866069392687
1548, -3.421300114686346
1549, -20.41968242494886
1550, -41.760623757845224
1551, -6.99260115873949
1552, 19.38857847791496
1553, 16.041524149053203
1554, 14.407607976547752
1555, 1.7347332951044336
1556, -13.44690325654301
1557, -1.122555902561544
1558, -8.428268929445494
1559, -35.975479198564244
1560, -46.83491649162488
1561, -27.33514290184621
1562, 7.435734574642993
1563, 22.65851899978452
1564, 18.36008753797114
1565, 6.172295957732786
1566, 4.675260030116988
1567, 21.816144600928055
1568, 39.420053844666654
1569, 32.04239609693104
1570, 32.120177947187585
1571, 52.746277144887245
1572, 100.32300948002012
1573, 161.20950702019763
1574, 224.58730907805693
1575, 290.2706613035307
1576, 350.0290605242726
1577, 385.1338432929251
1578, 388.6779069023132
1579, 377.2854773431254
1580, 371.7510976169824
1581, 369.2377489759274
1582, 335.1248028389555
1583, 277.55931547856926
1584, 202.88283947089894
1585, 118.73275196555369
1586, 75.51512683536293
1587, 58.34105683330927
1588, 30.390994182710983
1589, 5.246430065911682
1590, -11.570031515226674
1591, -17.095721781162865
1592, -13.63067702770013
1593, -19.043365623608224
1594, -42.541797143604526
1595, -54.60037772821397
1596, -38.67300455538134
1597, -2.376997232454869
1598, 0.12815953221524978
1599, -12.811373255137369
1600, -23.738413099841182
1601, -14.490139083608483
1602, 12.650802685604958
1603, 32.562470025583025
1604, 8.623490794957434
1605, -10.763733054325257
1606, -3.6977987608938747
1607, 34.84597443531038
1608, 48.08134639418677
1609, 39.56219294410721
1610, 21.240296050751567
1611, 2.737322759777726
1612, 1.3042794929433512
1613, 7.235874710340795
1614, -20.270574833205956
1615, -21.966889931844435
1616, 2.1221275533089283
1617, 17.227878146713465
1618, 29.326083317029315
1619, 27.908828477886345
1620, 7.70172884468866
1621, 10.527855747197009
1622, 11.401152184929288
1623, -2.4443752227862205
1624, -5.911882020970097
1625, -4.9258514446091795
1626, -2.749591501294617
1627, 0.6306560304656159
1628, 4.2631767113412025
1629, 3.9703179290322623
1630, -1.3807992480769826
1631, 7.951373718181912
1632, 16.78477458317866
1633, 13.096193266621867
1634, 5.709318040793278
1635, 4.384710076549709
1636, 6.832371657990734
1637, 2.5153174575939374
1638, 19.03053626269093
1639, 39.64195336976536
1640, 38.74062767190753
1641, 51.861483048175614
1642, 35.05594911012031
1643, -17.786995313680563
1644, -12.161731447105012
1645, 0.12259414804202606
1646, 5.612886867879752
1647, 19.828732075503922
1648, -8.227738848717763
1649, -33.0554171989379
1650, -8.527654176969008
##END=



