##NAMES=
##LOCALITY=
##RRUFFID=
##CHEMISTRY=
320, -12.25451712415088
321, -12.89497238095828
322, -11.652640504482406
323, -0.22901004779123468
324, 16.487217803258318
325, 27.927798271082793
326, 32.94053831396195
327, 27.843718821042785
328, 13.862152519028314
329, 7.784233761867654
330, 12.805369514209815
331, 25.82977554775971
332, 46.1854140399264
333, 66.2966958604502
334, 79.84747585953482
335, 86.38835359354016
336, 84.73962782737908
337, 77.06871888084243
338, 77.22408387514406
339, 94.9866879891124
340, 116.46713653961342
341, 139.2820722635115
342, 149.93725613985407
343, 137.32934256070985
344, 116.17826667373629
345, 113.7390505044732
346, 124.79805612203018
347, 126.59348474761646
348, 117.6171640838711
349, 105.31059332932455
350, 91.38658884793949
351, 71.37313325546165
352, 42.966018805986096
353, 22.65018417464853
354, 22.19231546084302
355, 35.48493976566897
356, 45.736576431412686
357, 50.44315512367575
358, 40.16316777643624
359, 15.580949569623044
360, 4.118308052060456
361, 12.345111963524687
362, 23.50716165859012
363, 25.326001485986126
364, 22.40077146495969
365, 21.0276374908899
366, 18.042268890485502
367, 4.501779765692845
368, -16.025635260632043
369, -24.189687874077208
370, -17.91444546418461
371, -5.837182350884177
372, 9.98988876594558
373, 20.178909459691567
374, 17.85652737993405
375, 8.395736207572554
376, -0.30225000059363083
377, -6.329526252071446
378, -4.822887900927526
379, 1.9805395593994035
380, -1.8064435184933245
381, -17.973998364122963
382, -26.56209658231819
383, -21.076462424953206
384, -9.82936126723689
385, 2.306185039171396
386, 14.800319454558121
387, 24.95742551868534
388, 27.264493210304863
389, 6.566348750902762
390, -30.00519583204914
391, -45.624282241047695
392, -37.091536171245025
393, -22.15580784031772
394, -5.253299512194644
395, 5.828489787580111
396, 5.9597633129287715
397, 1.3323576627808507
398, -0.4290636568712216
399, -2.3391087919662823
400, -11.268820073897587
401, -24.01706064238897
402, -22.273701142574282
403, -5.548645417278749
404, 8.057502499117618
405, 15.354331028745946
406, 30.048861774474062
407, 56.74182195481444
408, 75.42590947340977
409, 67.88832374621597
410, 45.09722645367947
411, 26.6236551015445
412, 19.40788128591339
413, 35.58110197786664
414, 74.60323124512979
415, 119.92864992012073
416, 159.81193366036678
417, 184.5008204838614
418, 190.79525084559646
419, 187.05693861625878
420, 178.4848227062521
421, 175.02343159786687
422, 188.62806962132163
423, 206.6459380001197
424, 200.91543423312942
425, 174.53033852977933
426, 144.13169139941056
427, 112.92416365085774
428, 92.41429065210468
429, 93.70249656252963
430, 95.07197939756406
431, 91.60508833345375
432, 78.97983066638153
433, 54.15926568734176
434, 25.28593877116691
435, 5.712608278416155
436, -5.30777653264704
437, -6.127757915328402
438, 0.36121589106915053
439, 2.462889942447873
440, -0.2852061123248859
441, -2.4182975653475296
442, -2.859338096179272
443, -1.0182206114823202
444, 3.570704553849282
445, 15.243441528607946
446, 37.79747076913554
447, 58.27196396307227
448, 62.40490204919479
449, 59.113458652225745
450, 67.96938576541652
451, 83.96292537517547
452, 85.66251122141148
453, 73.32083896052609
454, 62.72275783705845
455, 56.21982760133869
456, 44.517176686606035
457, 24.846239183314538
458, 15.506060114095817
459, 24.435909964475286
460, 29.13960018461694
461, 9.007454870412403
462, -19.749312242831365
463, -33.59300759874532
464, -34.93746354594623
465, -28.205361675156382
466, -14.575560613575362
467, -0.4817116140602593
468, 13.344650782977624
469, 16.978469981206217
470, 8.710125506286204
471, 3.158278047820204
472, 6.435800637913417
473, 11.780284405462226
474, 13.844268164053574
475, 10.62494671159584
476, -0.17579813744123385
477, -12.019593932574935
478, -13.510573394925814
479, -5.360145313183239
480, 10.529020641481111
481, 32.24416004003797
482, 41.60421511481218
483, 37.35331599820165
484, 30.609383316608728
485, 24.09804226208871
486, 17.808261390713596
487, 11.807137574562148
488, 13.142244234215468
489, 25.676648610809934
490, 34.65651696476925
491, 25.839674447250218
492, 9.78238167458403
493, 5.785482522693201
494, 9.186448848442524
495, 6.83202448945849
496, -0.7781274255994504
497, -8.411097354577578
498, -15.96300261518627
499, -22.37033324850745
500, -27.828511050494853
501, -31.73942327536679
502, -33.91081245958776
503, -26.86318495857995
504, -6.137165733171059
505, 12.78667356897131
506, 18.145387463307998
507, 22.60426367545915
508, 41.93591356349498
509, 63.725973873530165
510, 67.89829640069001
511, 62.3711894920707
512, 78.75665384196327
513, 107.95368604170108
514, 128.73944553120236
515, 140.02333352935239
516, 153.71662429372554
517, 170.8147868937831
518, 171.41492842941443
519, 149.84992656751092
520, 126.28447884637899
521, 110.3099604540239
522, 101.23957104377405
523, 98.58011005327171
524, 95.37340857079471
525, 83.81313619395951
526, 65.4721742638776
527, 43.046111812247545
528, 25.15122407846502
529, 20.760871706073885
530, 29.0178221453516
531, 47.24045515573198
532, 68.71170721839735
533, 73.78260937048799
534, 60.5452449002787
535, 39.56565454782685
536, 14.1041165075967
537, -2.5032697136575734
538, -7.891121418357216
539, -8.409465513228497
540, -7.066311677575868
541, -5.48587947012129
542, -4.808905511325065
543, -1.7144186023142538
544, 7.713310470884608
545, 19.324219055000867
546, 24.064552126708804
547, 21.801710459649257
548, 12.496435279461366
549, 3.419743732245479
550, 13.468926144078068
551, 42.190640737870126
552, 74.01244558706821
553, 103.48485766631711
554, 105.22910588470586
555, 76.36746066683372
556, 39.29977137419701
557, 1.2420978713180375
558, -17.776350147945777
559, -12.365960877306861
560, -0.29819314978340117
561, 9.755920379855525
562, 11.910068384520855
563, 0.005051841666499968
564, -10.682827452585116
565, -4.750374050932805
566, 11.150995842685006
567, 27.594042250730126
568, 39.40722369075593
569, 38.37048792358655
570, 28.443314634996568
571, 21.576760239327996
572, 17.874598389666062
573, 14.92604266613671
574, 11.336324222267649
575, 2.0675042429702444
576, -12.880607735320154
577, -21.00825424888899
578, -20.087532595489392
579, -8.478776584332081
580, 14.970735790695471
581, 44.171303141823955
582, 74.06966660100443
583, 91.53250134926566
584, 90.13001216427801
585, 85.80588442424778
586, 89.17829010924834
587, 87.79442684835703
588, 70.47859318544579
589, 43.63035159695755
590, 15.069073111551916
591, -9.066289615610003
592, -23.721435556328288
593, -27.988679323443648
594, -17.483901616413277
595, 4.132717554286501
596, 25.701323217994286
597, 43.31326564715346
598, 47.29087563239591
599, 40.502907291504016
600, 40.07750918430793
601, 46.14897844522966
602, 46.53127514203334
603, 39.400511035224554
604, 26.696558897463547
605, 10.016510624924194
606, 3.8266406403290603
607, 10.723691213590428
608, 20.79595082956257
609, 28.855364544013355
610, 26.849439438750778
611, 11.393574468593215
612, -2.917722526433863
613, -8.080697797728135
614, -7.505172190694793
615, -3.209512154375261
616, 1.53393832744041
617, 3.8301215382598457
618, 0.6381111917180533
619, -11.336327547254768
620, -18.732613823594875
621, -1.052050957834581
622, 23.74876095129912
623, 19.89209087573181
624, 0.8465622195526521
625, -1.9768480321254174
626, 4.21109901622367
627, -1.6104438585680327
628, -11.4781555893951
629, 5.400082221676712
630, 41.773006197479845
631, 51.850045047302046
632, 36.422277351852244
633, 21.915892741821153
634, 11.803798197042852
635, 7.129948683097609
636, 6.6751212054678035
637, 5.013957506091174
638, 1.6841091140231583
639, 3.693527130279108
640, 12.451133226568345
641, 21.91454517836064
642, 29.233258432203
643, 40.752139527621694
644, 57.32105969089753
645, 50.52035397884174
646, 10.349078506575097
647, -17.037548690845142
648, -13.523812078685296
649, 0.5536955030638637
650, 15.159036801213006
651, 25.010034800427093
652, 26.752096870675814
653, 19.441161475777335
654, 2.391870635417945
655, -7.728817053945022
656, 2.370059809420127
657, 21.019715378924957
658, 35.06269747938677
659, 39.00498871813397
660, 26.33778449111378
661, 8.8967277792799
662, 3.715015576022779
663, 4.091740616853713
664, 0.31505952960287686
665, -3.0190278699174087
666, 2.698699981534446
667, 10.101373132429217
668, 2.884824795044551
669, -7.674863792561155
670, 2.6485111878373573
671, 25.652663250752084
672, 36.02584842449869
673, 31.77831935427639
674, 10.640432245145348
675, -16.10252994158691
676, -19.776704041249104
677, -4.06149673471009
678, 14.391222825481236
679, 36.26264353156512
680, 61.21028450017366
681, 80.86599713836586
682, 61.103902454389754
683, 11.948586557209637
684, -5.380391788230554
685, 7.0129079712405655
686, 14.472690641778172
687, 16.612933799688108
688, 32.405243087059716
689, 58.5059803960321
690, 69.93029756469514
691, 65.16329373351982
692, 59.17321225997512
693, 53.34274919997188
694, 39.823462294998535
695, 19.754342053338405
696, 13.658182840410518
697, 22.072475037271943
698, 24.27652131638024
699, 16.823908779802878
700, 4.807220640364903
701, -8.983034965827756
702, -15.560211577916562
703, -13.045707493918599
704, -0.1494030516296334
705, 22.003515039450576
706, 26.94499552558773
707, 10.347628482906657
708, -1.1081818489783473
709, -1.6943656145940622
710, 9.10067924719624
711, 31.481436521467913
712, 52.716036684469145
713, 67.94661629971597
714, 59.23844075384113
715, 24.290758211263892
716, -1.2038069994996476
717, -7.575964180803567
718, -5.50131114755095
719, 2.224222763135913
720, 16.67501230130074
721, 35.92417153927454
722, 36.57110992350863
723, 13.829256265100412
724, -0.4918443675596791
725, 1.991525943056331
726, 2.967337137222785
727, -2.3312500890897354
728, -2.89436686661611
729, 3.597640352707458
730, 2.1417364597182313
731, -9.863915540187008
732, -9.964286295209604
733, 6.648101889615646
734, 12.003840115605271
735, -0.7914485605451773
736, -10.987314502413938
737, -13.72421856427718
738, -11.640543488510957
739, -4.7377114436349075
740, 12.821167045864058
741, 39.83401732117636
742, 43.45724536126909
743, 18.239178118696145
744, -1.987848280599792
745, -9.300905261057778
746, -10.44886805405622
747, -7.231263087140178
748, -1.0317206715681095
749, 7.126907163710712
750, 6.941274715261898
751, -1.8601318394084956
752, -3.1631485132002126
753, 4.616585905498141
754, 9.352935616794639
755, 7.893778689243845
756, -0.43503180836523825
757, -11.765763181747388
758, -1.7924947460924159
759, 28.47760714049582
760, 41.638045712206804
761, 34.60706020631369
762, 23.457492697902126
763, 10.313922986631951
764, -5.080395829434565
765, -18.80748142135235
766, -6.747378518894038
767, 24.11541050013693
768, 27.613354603938205
769, 9.388677898070455
770, 11.059607142582536
771, 30.203427616235786
772, 43.274451695240714
773, 50.24787415258652
774, 56.95264199851408
775, 59.613105801188794
776, 46.34685492596327
777, 27.105062663227727
778, 31.873237607331248
779, 46.40500874663667
780, 41.06840755576195
781, 23.422203677955622
782, 11.437075270661808
783, 3.0162779892871185
784, -9.62005514336306
785, -14.224785757429345
786, 10.949798352312428
787, 40.198560016668125
788, 31.58229552751436
789, 13.423284700465956
790, 22.86219988481207
791, 43.596315587135905
792, 54.57897812361807
793, 57.190603439442384
794, 52.70804654058702
795, 38.89474481255729
796, 14.167966103645995
797, 1.844202433553619
798, 15.30456988493097
799, 36.97406080859946
800, 53.81023847767119
801, 50.555679487434645
802, 20.761761764293624
803, -4.796046473024035
804, -13.368314149869548
805, -7.028603802458747
806, 12.4612592904532
807, 19.643503935678382
808, 8.379163144550148
809, 0.9917441018369573
810, 2.2695827286415806
811, 11.018249737256156
812, 26.74325172841418
813, 41.24689210258566
814, 50.459907689690226
815, 39.530919519449526
816, 12.961817140776475
817, 1.4248579413351763
818, 4.268738794251476
819, 11.147679902426717
820, 16.916756995674405
821, 10.38910463654247
822, -2.563995322525443
823, -5.967630700477457
824, -0.09811766827806423
825, 14.262684923214692
826, 25.943962166592428
827, 16.61980899250557
828, -0.2752698221602259
829, -6.584270218934762
830, -3.822378784236207
831, 7.2474879586652605
832, 20.13023034505568
833, 27.769193737372007
834, 25.12559710495225
835, 9.266712770329832
836, -3.7900105451308264
837, -7.379713219317637
838, -0.09523085770433681
839, 18.258442414288766
840, 28.84578902821795
841, 26.50836905336746
842, 22.639400318043045
843, 19.688243407964364
844, 13.633574723936363
845, 4.900320713322799
846, 0.9176952869092929
847, 1.0795542544519776
848, -0.053818527451767295
849, -1.7479448205785957
850, 0.6538034043114749
851, 6.038104043900603
852, 9.90918757712916
853, 8.44032404637801
854, -5.51188850147355
855, -22.790479094324837
856, -30.069606548084266
857, -25.260249075913634
858, -4.856764529603424
859, 17.208295125633413
860, 27.96821534987339
861, 30.33758535870038
862, 26.222230196688542
863, 17.654107678604305
864, 6.2048727636220065
865, 2.8308196843327096
866, 9.45268905471221
867, 9.805718139690725
868, 1.9093516024850032
869, 3.163715123109796
870, 13.47646807561614
871, 13.629704274225332
872, 5.44087148278868
873, 6.414791798931219
874, 10.433842182211265
875, -2.4993650283468014
876, -20.094185665092482
877, -15.936366841380732
878, 0.1134132032184425
879, 12.92853979402662
880, 20.83851099158983
881, 22.24270447143772
882, 17.585032305533787
883, 7.359146897147184
884, -0.45730075205756293
885, -2.648661165314479
886, 2.0061819521715734
887, 13.911239118158846
888, 27.07581552602369
889, 38.20626737377279
890, 48.248740609275046
891, 54.26289593533329
892, 40.88901441350936
893, 12.801234704390481
894, -5.572859930381128
895, -11.367804317701484
896, 1.5719119875921024
897, 24.508337818822838
898, 39.45086126320621
899, 42.51876941399496
900, 29.48667303336879
901, 11.5651894521543
902, -0.909187978169939
903, 0.5022537621916854
904, 19.641285628680635
905, 24.714435206684357
906, 6.371003640439994
907, -4.9542530199250905
908, -3.737902966292495
909, 2.0226426942881517
910, 13.494878865739338
911, 40.43756700154972
912, 68.63530373661524
913, 58.36037268219661
914, 28.36178035330886
915, 20.378382722929928
916, 26.83900894319504
917, 31.5106976419047
918, 28.089990301739817
919, 11.534140109807595
920, -1.755507020137884
921, -4.2582386101239535
922, 8.040042410636488
923, 36.1669771353354
924, 61.39127901207303
925, 78.05191775163166
926, 79.6572884537427
927, 69.16638961138233
928, 61.64573724060119
929, 54.584130177331645
930, 38.19260505256352
931, 17.90559170164397
932, 5.143393115033177
933, -2.080452910860913
934, -5.3476383135785
935, -2.9095927120988563
936, 6.145355474350254
937, 6.299480477226098
938, -6.616773946399007
939, -3.275020397838489
940, 21.234293515913123
941, 43.359469059281764
942, 56.451761539228755
943, 50.79264042642626
944, 29.69026593155104
945, 3.5521365032109316
946, -13.365929340186995
947, -1.811876037858383
948, 25.155450985950665
949, 53.4296438252004
950, 52.43509337614614
951, 7.618543230027171
952, -20.083166640217314
953, -13.2757268431169
954, 10.362748345632099
955, 42.96756311986792
956, 53.94112306616353
957, 41.784743327883916
958, 14.046434769314146
959, -9.720384474815546
960, 1.3559240218728519
961, 20.467421882484814
962, 14.815374697872358
963, -1.0225591885300673
964, -16.558577076225447
965, -15.806929633871732
966, 6.4090087548902375
967, 31.883786735719696
968, 50.309556294364484
969, 37.969988210976226
970, 4.704114744864455
971, -7.919141549168671
972, -6.295680690644076
973, -5.430652604817624
974, -4.2487193973411195
975, -1.16625491967352
976, 2.4095152712307026
977, 6.161069219403544
978, 18.22835500324436
979, 37.498067389327844
980, 35.345517969706634
981, 12.314583629301524
982, -0.3011724063926522
983, -2.0293724769599066
984, -1.7277886334877621
985, -1.512322465609941
986, -3.9786288316618084
987, -9.082587008240807
988, -16.76483547148382
989, -17.537133317412554
990, -7.1529431080180075
991, 6.453702995771891
992, 21.59000983490023
993, 37.12022456868908
994, 50.55819631422855
995, 62.222174541098866
996, 74.48737776849612
997, 91.72823650736245
998, 105.74116475869869
999, 108.09860630285493
1000, 106.27293581987306
1001, 104.2719501087231
1002, 99.0007085496818
1003, 89.26842093235064
1004, 73.85560979787533
1005, 51.93456005572807
1006, 21.40517595948404
1007, -5.608068847478535
1008, -12.134113351330598
1009, 1.3304168504046174
1010, 35.2399136160484
1011, 61.77851383593861
1012, 65.40155190519272
1013, 46.54259420656581
1014, 11.433865870230875
1015, -2.1057257844713604
1016, 6.929003410722544
1017, 27.439052984495902
1018, 51.679080700420855
1019, 61.25696743256685
1020, 58.73409258798256
1021, 47.26771724943319
1022, 44.90912285108425
1023, 58.18905423427532
1024, 63.39703638922401
1025, 55.29951567344415
1026, 39.047063879034795
1027, 20.071414347847167
1028, 12.635963522242491
1029, 15.33491757453885
1030, 26.53202639723986
1031, 28.56582358996002
1032, 11.205516725195594
1033, -7.054694734916666
1034, -19.665935943738987
1035, -14.320228111291726
1036, 7.348803246511125
1037, 30.99950724678365
1038, 50.08371466327844
1039, 56.532800403409965
1040, 50.034470594488994
1041, 30.939169797027716
1042, 13.557380517132515
1043, 4.596649751634686
1044, -9.05065696609472
1045, -25.802582541260563
1046, -22.303242112706357
1047, -7.053333686202677
1048, -3.9764511378953102
1049, -8.18144548399232
1050, -14.082325470971227
1051, -22.158033665755283
1052, -31.52510458256802
1053, -25.223823954222098
1054, -5.0210831039221375
1055, -3.4826445641938335
1056, -15.917586215769916
1057, -22.29485817686782
1058, -22.07033475431308
1059, -15.02067601613453
1060, -7.14970121272836
1061, -1.8163840864845042
1062, -2.834857514367286
1063, -5.8156787876359886
1064, 16.184967718508233
1065, 63.70798896956603
1066, 129.3291245031287
1067, 207.2245044723686
1068, 271.02770059815975
1069, 325.9796545364361
1070, 377.138811615484
1071, 447.6855323656364
1072, 534.5776355792059
1073, 598.154463924976
1074, 639.9570958256345
1075, 672.9182283897371
1076, 687.9992892843475
1077, 676.3417095639334
1078, 652.020080228488
1079, 620.3962162364614
1080, 571.9783969544387
1081, 506.834162165439
1082, 432.7676607629337
1083, 357.3087488677429
1084, 292.1764129839239
1085, 220.60217936339814
1086, 131.4683605961709
1087, 73.49164251153616
1088, 48.12141661282931
1089, 18.338396017979903
1090, -15.366868578589674
1091, -31.27655851736108
1092, -39.443765731447456
1093, -52.86343902701992
1094, -54.406544010819744
1095, -35.89951598091466
1096, -16.337920833061617
1097, -2.4262064344966348
1098, -5.873455823234508
1099, -17.692972918181113
1100, -18.817883880883528
1101, -11.453078630328491
1102, 2.8260531128935327
1103, 21.730851476404496
1104, 39.34296784772323
1105, 30.554868880348295
1106, 6.171492383597069
1107, 5.638401439856352
1108, 14.676101761182508
1109, 13.947751778489874
1110, 8.020378583800266
1111, 1.5658618308407313
1112, 7.059306549298526
1113, 23.511408323547585
1114, 35.056592976010506
1115, 35.49321044638782
1116, 17.46140561566972
1117, -5.850933213551798
1118, -24.951614641498054
1119, -22.5933771969394
1120, -1.0677517826752592
1121, 8.700044474745482
1122, 11.330282517311389
1123, 20.475627179685034
1124, 31.448679368381818
1125, 40.790232779495454
1126, 40.534512102022745
1127, 30.17841338072958
1128, 20.093434944991714
1129, 12.188627488389102
1130, 8.783709398311657
1131, 8.557535318894224
1132, 10.009174977673865
1133, 2.6799566256941034
1134, -11.921589693438364
1135, -2.599807607567527
1136, 28.538987727857602
1137, 66.98818143876451
1138, 96.6047068226435
1139, 105.88175018005859
1140, 94.89174905568598
1141, 68.73408549502983
1142, 55.28348951099724
1143, 53.21420243611465
1144, 49.93537403972823
1145, 34.888782644330604
1146, 0.7504866344888796
1147, -19.755933878041105
1148, -18.058025130412716
1149, -1.905388663461963
1150, 21.319136277005782
1151, 34.93365082323453
1152, 39.414781703995686
1153, 35.866887889877034
1154, 27.773907033062642
1155, 17.33117760011646
1156, 9.29527189118744
1157, 3.5263084093212456
1158, -3.7275911724773323
1159, 0.34143759457401757
1160, 23.63897896371418
1161, 34.75979218661996
1162, 27.629056334905727
1163, 15.515888430830273
1164, 4.020238190607415
1165, 0.3535222498285293
1166, 2.946667309890472
1167, 10.164056566385625
1168, 11.491877180822485
1169, 5.326416628433435
1170, -4.93993366020095
1171, -10.879006176149232
1172, -1.8998152043832306
1173, 2.627430522562463
1174, -3.252773699984573
1175, 1.6484536208536156
1176, 17.856639607355646
1177, 37.18528770010653
1178, 57.01788030417447
1179, 75.88714554746002
1180, 75.30770538556044
1181, 56.95756073069424
1182, 58.84836290578278
1183, 69.59994207152249
1184, 60.64189832641023
1185, 42.150042019507964
1186, 20.487607858162846
1187, -6.892977555121433
1188, -31.981871963207595
1189, -20.08575186215603
1190, 5.256141770017166
1191, 14.35351508543772
1192, 10.260290114552845
1193, -1.7950335896603065
1194, -1.6330932924765875
1195, 7.941668246083282
1196, 15.764478217060969
1197, 14.889949830400838
1198, 2.109144367284898
1199, -12.493948943948453
1200, -21.805282456215537
1201, -7.030553140864868
1202, 19.777554248861634
1203, 42.43646994519622
1204, 49.10908275959082
1205, 41.62378975388128
1206, 52.56508399847007
1207, 71.62059695615244
1208, 69.44992757041837
1209, 63.37913805608969
1210, 63.88541369055292
1211, 56.92635269570383
1212, 46.15544650886386
1213, 52.242408076789616
1214, 54.985004504789686
1215, 33.4049585240673
1216, 9.912367253276898
1217, -4.4885197476369285
1218, -2.80155285174078
1219, 10.727552987966192
1220, 28.712923865853554
1221, 34.53111265234929
1222, 22.08891039154787
1223, 3.346937043462276
1224, -11.992935834515265
1225, -9.83450710858142
1226, -3.9982505615425907
1227, -3.64875850899989
1228, -1.6512022911010718
1229, 5.244435574599265
1230, 21.450618691194904
1231, 32.74826048670093
1232, 25.641382891964895
1233, 5.623631104651395
1234, -15.704278166302174
1235, -4.804540555381209
1236, 25.842410200469203
1237, 52.852387400164844
1238, 49.958249108345626
1239, 15.347979307705828
1240, -2.1551651734353072
1241, 2.728462515501633
1242, 30.523720418545054
1243, 44.0324551984786
1244, 27.195016110056713
1245, 3.2505060649418738
1246, -11.700605665927469
1247, 4.510486347387086
1248, 28.025275027035605
1249, 40.19235461720473
1250, 30.550096519840736
1251, 13.341148617979343
1252, 29.50862565679563
1253, 58.92322286267881
1254, 80.1513145472345
1255, 86.11607911580995
1256, 78.90368314623174
1257, 69.06501744364778
1258, 69.31837269936204
1259, 86.8123913239142
1260, 85.39694893321666
1261, 60.26358203357995
1262, 27.18926916231794
1263, 8.123221606488187
1264, 17.22094515846402
1265, 41.51235154553524
1266, 66.49961423708464
1267, 64.42684952617492
1268, 47.460359116458676
1269, 30.77400833203228
1270, 25.15810684680764
1271, 27.758521788042344
1272, 6.969251318228089
1273, -13.880654708147631
1274, -11.613771988572807
1275, 7.769826521315736
1276, 42.25423181196311
1277, 84.44255707079355
1278, 93.18744650664758
1279, 34.062222990619375
1280, -3.0448089234096187
1281, 0.09109155767782795
1282, 14.181189799342974
1283, 34.476631156172516
1284, 53.03804976149968
1285, 37.18625892736691
1286, -3.151455048888238
1287, -9.829558057021131
1288, -7.888611161158224
1289, -19.36440847740596
1290, -15.791172420447765
1291, 0.9787054649686979
1292, 5.181798487416927
1293, 18.181701533575506
1294, 50.25860470767748
1295, 40.81284571053766
1296, 2.9675656855570196
1297, 2.15058545231841
1298, 9.916742837312086
1299, 6.384441403456549
1300, 2.214960140416224
1301, -1.2084206546960559
1302, -4.4312944458579295
1303, 2.4322170887398897
1304, 20.904169112059208
1305, 22.10887216802712
1306, 6.048891202692175
1307, -17.991661280389962
1308, -24.336519739821597
1309, -5.478204639409341
1310, 19.14281142852269
1311, 34.50251901008869
1312, 25.122080132056
1313, 17.28938055315666
1314, 16.26474226341361
1315, 7.060149791007461
1316, -3.5871965432879733
1317, -9.735164059339695
1318, -13.994161847378564
1319, -10.100675373996637
1320, 21.157913230174927
1321, 41.9630490309346
1322, 27.873960058357625
1323, 6.9073920877390265
1324, -6.010076331897835
1325, 4.3213430307450835
1326, 31.110401340423778
1327, 63.44862905911123
1328, 70.63827938385566
1329, 57.846946433359335
1330, 38.790134406219295
1331, 33.36001625276913
1332, 40.359926675113456
1333, 32.325081678925926
1334, 15.562384463803937
1335, -0.14804144481149706
1336, -9.832428246273594
1337, -11.310339027853843
1338, -1.5290071019189782
1339, 3.117752322762499
1340, -2.0098755927783714
1341, 8.970168808626113
1342, 27.68472231724354
1343, 33.86129341226297
1344, 24.993696130833086
1345, 6.539057437889824
1346, 0.15969834816587536
1347, 10.457610403873332
1348, 36.829410181399
1349, 38.857315317872235
1350, 17.364007689303435
1351, -7.434063860680908
1352, -21.37133132690542
1353, -17.723877483816068
1354, 7.661731381524987
1355, 37.16353762838298
1356, 46.579806215520875
1357, 51.09470307166521
1358, 50.504202776704005
1359, 32.393520894632275
1360, 15.876977473074476
1361, 12.998580321880581
1362, 9.230230709357784
1363, 13.355970214628542
1364, 40.89020805250675
1365, 56.416709577946676
1366, 50.08581299607067
1367, 29.97838599914121
1368, 10.357297648839449
1369, 3.0951850193296195
1370, 10.252008734154515
1371, 19.701017370211048
1372, 9.011685077761285
1373, -0.626830033744227
1374, 1.2748088269318032
1375, 25.68963948835244
1376, 35.555737461688295
1377, 7.47780949810749
1378, -3.272796413447395
1379, 5.404636142471645
1380, 20.850524344607948
1381, 38.50258059578573
1382, 46.05624242484646
1383, 7.485426202969393
1384, -19.089114334979058
1385, 3.8221692576080386
1386, 25.726426288098082
1387, 36.582775880789995
1388, 36.68661261185662
1389, 19.044076445597966
1390, -6.770408123129528
1391, -4.49708382778681
1392, 6.757314638795833
1393, 13.287012271058302
1394, 17.431951040828608
1395, 19.699807506382967
1396, 20.348616250741543
1397, 22.60749210539325
1398, 22.25642104732833
1399, 6.412808436401065
1400, -5.650831980890871
1401, -6.058753181726388
1402, -3.4487620043237257
1403, 2.70515205859283
1404, 12.644570267230847
1405, 9.67854862666718
1406, -0.7366753761689324
1407, -1.0410032313111515
1408, -2.767101559825278
1409, -7.227642542101421
1410, -1.8413851076584251
1411, 2.906398612522935
1412, 0.43778387653310347
1413, 3.369973564569591
1414, 5.144570905087676
1415, -4.425690554500761
1416, -2.524112994018651
1417, 10.016903160904803
1418, 17.333431308367835
1419, 27.33478648469645
1420, 39.92471102119271
1421, 37.76467156045601
1422, 26.769033623752875
1423, 12.358975691813612
1424, -8.047862394964795
1425, -22.40482365842763
1426, -13.06464575173959
1427, 8.51389983620993
1428, 33.57924227995136
1429, 44.86452305522289
1430, 28.174421565289776
1431, -8.136260990672781
1432, -14.739510464034538
1433, -9.155011570642273
1434, -4.814819650372556
1435, 5.445649452883117
1436, 9.055655532503806
1437, -5.4345308533183925
1438, 9.257257624242811
1439, 45.619848576676304
1440, 64.16823913513235
1441, 48.71326745397346
1442, 9.762658961323723
1443, -8.160451856670988
1444, -10.419449300088672
1445, -2.676214234183135
1446, 7.203218875341008
1447, 4.0800251684268005
1448, -14.885441937925862
1449, 8.018044530127554
1450, 48.73104635054733
1451, 62.66379437632531
1452, 59.266017202284274
1453, 47.717622374087114
1454, 40.320096205982736
1455, 40.42171960050928
1456, 45.50224668199189
1457, 46.5081645541195
1458, 42.638552579355746
1459, 37.43814685629604
1460, 43.600446222863866
1461, 40.340202049287655
1462, 18.24029227556457
1463, 5.240519322462205
1464, 1.6218358080823236
1465, 5.130539081221286
1466, 15.068729076147974
1467, 17.70038348359776
1468, 0.23738631566084223
1469, 4.30944558939791
1470, 24.106825187876893
1471, 30.715309826566227
1472, 35.07415074736309
1473, 31.92989400084116
1474, 2.890679787600675
1475, 0.7046743366436203
1476, 27.487643866595135
1477, 24.19198937487181
1478, 12.48934654651839
1479, 7.987309952020041
1480, 11.96850112248103
1481, 29.11483489386592
1482, 53.53048514253169
1483, 50.295785136802806
1484, 27.892478119824773
1485, 2.3310896325210706
1486, 2.180125486527686
1487, 8.313954897746953
1488, -1.4693128771768897
1489, -6.292445890223462
1490, -3.4047479803621172
1491, 5.619753490569565
1492, 18.915437974209453
1493, 22.145059678316102
1494, -2.5654049536615275
1495, -20.005705592661798
1496, -16.544622785338106
1497, 14.671987103175525
1498, 31.387809793953238
1499, 27.082625934985117
1500, 19.799893555879862
1501, 10.519475413557302
1502, 6.519752776866881
1503, 20.739911871715776
1504, 12.610504041835156
1505, -13.734566044837266
1506, -0.8156938416741468
1507, 13.940512640658199
1508, 14.029985567859512
1509, 11.229939476375876
1510, 0.9235800070946425
1511, -11.288464697756353
1512, 1.0022335297462632
1513, 18.5329526748601
1514, 24.005196264482947
1515, 3.569261399370589
1516, 1.8654025128107605
1517, 34.73569125378344
1518, 55.10820373196566
1519, 58.69975771459849
1520, 43.843914147369105
1521, 3.4345575660163377
1522, -16.865896531724502
1523, -0.11861606047477835
1524, 3.5745925466453627
1525, 6.343696391490994
1526, 18.655425803566686
1527, 31.129486772305427
1528, 30.214298750609032
1529, 10.483986833480685
1530, -11.965074671947605
1531, -19.613619250173997
1532, -4.0350224653770965
1533, 20.92628533079551
1534, 32.07989868813229
1535, 19.6288452822605
1536, 6.045991908130418
1537, -3.4599918924818667
1538, -8.209199610460018
1539, -8.069383528724302
1540, -6.349771346016951
1541, -2.1929077349368526
1542, 15.321737342937013
1543, 27.12239764313017
1544, 20.914064754922038
1545, -2.510809030765813
1546, -15.886266219022218
1547, -10.314240769538173
1548, -2.8130333479621186
1549, -4.041797427083566
1550, -13.10918566519831
1551, -11.875364447788797
1552, 16.711255997234275
1553, 53.05550508351007
1554, 24.600624986958792
1555, -10.833949245703025
1556, -27.34955970601095
1557, -25.091680898066443
1558, -14.59713143605586
1559, -10.707570741803465
1560, -33.693104466526165
1561, -30.64844037455623
1562, 0.49942519589149015
1563, 31.36180843314196
1564, 36.68077491305212
1565, 26.900360212802298
1566, 27.166371711571628
1567, 30.738337303066146
1568, 33.54081279366983
1569, 32.74421196750245
1570, 25.758534914223674
1571, 44.36679942137562
1572, 114.86935778696989
1573, 192.79218743516049
1574, 263.2549482932145
1575, 330.4721078988987
1576, 396.8583417957343
1577, 457.47427608899307
1578, 501.1338637628696
1579, 501.25716583123085
1580, 471.1294314571196
1581, 429.1630788728744
1582, 402.69423599486436
1583, 370.7736859020697
1584, 321.1282419550971
1585, 248.8616043997663
1586, 177.9121203676259
1587, 108.97273918315022
1588, 44.17064521703105
1589, -1.0499984298276104
1590, -20.996594515935612
1591, -14.038460231109639
1592, 5.070077123350529
1593, 10.590482709591015
1594, -13.111978006615118
1595, -42.2337322101057
1596, -50.157680768284536
1597, -27.17040928520146
1598, 7.930005698339755
1599, 35.07269815219479
1600, 45.72489409345826
1601, 46.402041164461025
1602, 49.57999219536214
1603, 46.867619735039625
1604, 20.26624334516964
1605, -4.148299765178763
1606, -10.431524362685195
1607, 11.867519547999109
1608, 44.98736851563217
1609, 49.04067735920353
1610, 16.289775709978585
1611, 20.186999806505355
1612, 29.70590459891673
1613, 23.824079527246795
1614, -1.8046468991201436
1615, -24.39519365848855
1616, -29.459005153383714
1617, -6.313828549042682
1618, 17.198265608155452
1619, 27.723320141132717
1620, 21.720910080494832
1621, 20.422450170137836
1622, 10.067167375926147
1623, -10.765632692387499
1624, -14.725312381904587
1625, -6.463576660759372
1626, 9.898647807849102
1627, 29.993859178700404
1628, 34.14042255136246
1629, 28.578963162651235
1630, 28.638025159663812
1631, 36.9015399785435
1632, 42.84129667298339
1633, 38.61615543739845
1634, 26.359824422625024
1635, 7.05351317016175
1636, -6.850982514090447
1637, 4.108268577686431
1638, -3.0280078964919994
1639, -12.960649054684382
1640, 2.905262336004398
1641, 2.1834812557599435
1642, 1.5953864789839827
1643, 10.148740836840716
1644, 1.6613498345745938
1645, 5.464540837718687
1646, 17.11760321259635
1647, 4.583934013443923
1648, -18.80134766367928
1649, -29.52935257378067
1650, -11.023298663548303
##END=



