##NAMES=
##LOCALITY=
##RRUFFID=
##CHEMISTRY=
320, -25.306412931109662
321, -9.717904332914259
322, 1.1094009028056462
323, -0.1167445132668945
324, -4.389182335877194
325, 3.8914205758774187
326, 20.780598664361605
327, 26.342020764592235
328, 19.75535211831084
329, 11.843374453861543
330, 6.680321020232441
331, 11.504221586781568
332, 31.0531233456295
333, 59.793542816654735
334, 85.14217107587865
335, 105.0184909935142
336, 113.77743382654262
337, 110.79028858610945
338, 94.18361365800047
339, 65.07284271460594
340, 50.83663275276558
341, 66.94410440706633
342, 82.20467159881991
343, 75.14004661544277
344, 56.196484427660835
345, 44.71597985104381
346, 44.97138527474635
347, 54.5283081858488
348, 67.90603356434804
349, 78.2328254317581
350, 83.78020676179949
351, 82.93770046528698
352, 74.87550793799528
353, 62.48626679720837
354, 49.04502965177744
355, 39.1741156956341
356, 47.87199294110724
357, 65.12595731209149
358, 57.6960922847029
359, 23.46893214193733
360, -2.761412130897952
361, -13.72780298349062
362, -16.1759377747112
363, -13.898735319822663
364, -1.9151542163835984
365, 27.48259930869608
366, 62.055205904842296
367, 66.97289426059069
368, 43.9562828650287
369, 15.217611094001768
370, -12.62830308773664
371, -19.36187648690793
372, 1.9823625994467875
373, 22.813765365272047
374, 21.753014394813363
375, 7.507007860804151
376, -6.369628972568535
377, -18.024503242524588
378, -19.47473212450859
379, -10.87750971846981
380, 4.991223254421129
381, 27.78339518089342
382, 36.12576309579708
383, 22.97958512394871
384, 5.440953370800344
385, -4.3702601206205145
386, -9.760749100320027
387, -14.555024067018167
388, -20.66698575504779
389, -32.59784113625028
390, -48.90077368023776
391, -55.407208978962444
392, -50.40405973584711
393, -33.94874169225659
394, -4.850865652582797
395, 21.24234904055993
396, 33.742001195909324
397, 36.24070593665601
398, 33.085109610839936
399, 24.42478579566159
400, 10.587136301655846
401, -4.089593390142909
402, -6.4445834382459
403, 4.165329205841772
404, 20.255510442839295
405, 41.540019586349445
406, 77.88767025250309
407, 136.59169204714453
408, 196.36847255729117
409, 244.94362022590212
410, 278.8298831210941
411, 291.8047838269249
412, 287.8071418804866
413, 280.2598198152573
414, 272.0447748906172
415, 274.8874521502785
416, 289.8431511154449
417, 300.99028463391187
418, 302.9183474774363
419, 295.37391589443905
420, 278.1994223547099
421, 258.32315638663204
422, 244.07430221922914
423, 230.1568321178238
424, 204.76794996817443
425, 168.83833120198688
426, 127.86560329522217
427, 83.9846301803118
428, 57.9405672599496
429, 49.06148522503099
430, 41.842888600893275
431, 25.73123359805686
432, 13.521024916562965
433, 11.17332438799167
434, 9.621261492196936
435, -3.028012486483931
436, -18.151744658594907
437, -13.64737017936568
438, 3.7960983955981646
439, 1.5503246993666835
440, -19.759189560763843
441, -24.18829267199544
442, -5.412560500597465
443, 7.249853529636312
444, 2.381594626327569
445, -2.1118982952939405
446, 5.303416554233991
447, 15.247303940230267
448, 14.565052923053372
449, 9.694980840709832
450, 15.753050908841033
451, 30.90593778701441
452, 42.53485107587767
453, 48.98412022843149
454, 46.163766853345805
455, 33.868083699129784
456, 20.431724867295998
457, 8.703833430741724
458, 4.095839359155434
459, 8.694511968116785
460, 12.459843506612742
461, 4.190505697713888
462, -9.04129110033682
463, -17.079420814281548
464, -22.228166573126146
465, -29.91252154754511
466, -36.74675781525184
467, -21.447300626668948
468, 16.468096367600083
469, 44.14386013279545
470, 51.6729126652117
471, 50.99724745712592
472, 46.87034653573937
473, 35.28856974828523
474, 13.595736345860132
475, -4.091038408165332
476, -4.903662214328506
477, 5.768165656856581
478, 18.776444242748767
479, 30.4597030310415
480, 31.993216625904097
481, 24.606772336112044
482, 17.951642264819384
483, 12.600145758144208
484, 2.2823126432631398
485, -14.765053668677865
486, -17.264388796451385
487, 3.4066899804256536
488, 29.243565131262585
489, 47.14092235163844
490, 54.82307007326381
491, 49.87838099824876
492, 34.88456424604192
493, 14.315364586058422
494, -5.090827387841273
495, -10.956846188564668
496, -5.756169149768539
497, -0.754361024544778
498, 1.9610168721810624
499, -6.211087795754793
500, -26.022622276748734
501, -33.95274835534292
502, -23.149740976661633
503, -10.198711760245715
504, -2.5561633388442715
505, 2.615562165306983
506, 7.445546599858062
507, 8.692756913094854
508, 1.7763964582027256
509, 1.735677843546
510, 39.549626379697656
511, 102.92863416399268
512, 137.17673644115166
513, 144.8344530198101
514, 153.56552197342717
515, 165.1775812570013
516, 167.05474408764894
517, 158.48390038633624
518, 165.2009007797824
519, 194.03125801435817
520, 203.11420497275867
521, 172.70034537502943
522, 128.73907839508138
523, 89.86501644597229
524, 56.25366557410962
525, 33.72932130286972
526, 17.972070504514704
527, 3.87418015759431
528, -6.964246403291327
529, -7.880319841318851
530, 0.04029993801668752
531, 12.48289199539613
532, 28.126761441970302
533, 33.97382450405166
534, 28.82476283550568
535, 18.469033492252493
536, 4.673670176631276
537, -5.8746263821903995
538, -11.88948507027817
539, -7.973583515991777
540, 9.201094901387478
541, 21.97238300337085
542, 15.105672955623959
543, 5.357714540194138
544, 11.83826852564016
545, 28.652985239972622
546, 43.963380180670356
547, 54.62942727692098
548, 53.71511460896727
549, 43.152950443027294
550, 30.221080661505766
551, 18.66069407911891
552, 25.31184374924669
553, 48.84169109384311
554, 59.249252595449434
555, 51.992707933100974
556, 35.52514574363704
557, 12.773678976254814
558, -3.466135354134167
559, -10.296505809006703
560, -5.666458578833044
561, 12.246295961444048
562, 21.06550067914759
563, 3.5348552935593034
564, -17.66308108219164
565, -20.57154417464335
566, -12.068374286702237
567, -1.3198116592830047
568, 11.020309735076808
569, 22.794630286025495
570, 30.758136422500684
571, 29.136413838567023
572, 21.32896222692034
573, 21.82589146974533
574, 29.373482424825852
575, 29.57620507417778
576, 20.782252353765216
577, 6.606847928274874
578, -10.165983178278111
579, -15.549485756015201
580, -6.063932224073142
581, 11.516814270953546
582, 35.84946875708192
583, 59.16828661603358
584, 78.07008297529137
585, 83.7103360654146
586, 70.20208847249705
587, 49.04382967762467
588, 30.554818094260554
589, 11.153761140174538
590, -12.418697442893972
591, -31.57716837476255
592, -30.4862847731456
593, -13.862062757520107
594, 9.246332110891672
595, 34.15376319257666
596, 41.735865362885306
597, 34.22099400072875
598, 23.16455535971363
599, 11.17276705095901
600, 6.7027353959838365
601, 10.116536104076658
602, 21.106601143010266
603, 36.11114752762842
604, 35.054725466890886
605, 15.385585869662464
606, -0.9734527586570039
607, -7.855970276230437
608, -5.6196590670351725
609, 5.726860721440971
610, 17.48222408094989
611, 24.518008448669207
612, 22.0220998991299
613, 7.311455950881282
614, -10.076616756814474
615, -25.562226498932432
616, -28.7998265363658
617, -9.285117218578307
618, 14.981671302230097
619, 23.21663292068115
620, 24.521728643136157
621, 36.85607896116926
622, 54.58215988206575
623, 71.7211165828121
624, 83.6083893991563
625, 80.2203803489574
626, 60.65584350676181
627, 23.462462693503767
628, -17.466314744482588
629, -28.29038558791035
630, -10.68465779233884
631, 23.137812029743145
632, 68.02945725689278
633, 87.32327011498273
634, 81.36809765789621
635, 79.25920256713835
636, 84.52114523797718
637, 87.70483720215634
638, 85.9493960970558
639, 70.4367052261914
640, 40.41681969581077
641, 12.536195729369865
642, -6.615156275564004
643, -11.182231397711803
644, 0.28399652756888827
645, 12.612875993429043
646, 20.347448008702486
647, 19.021360150793043
648, 7.50818017327947
649, 5.03998879638857
650, 21.319691170056103
651, 37.11421431597955
652, 40.45427919547183
653, 37.82133886735937
654, 34.05270134166858
655, 28.519137178767778
656, 20.67272780915664
657, 13.806228621568152
658, 12.655348314701769
659, 10.83903938405274
660, 2.432932619622079
661, -4.167187653329165
662, 1.5011383292130631
663, 10.600999307242091
664, 8.273357347594356
665, 0.8897087834284321
666, 0.04013003161526285
667, 0.3466027689482871
668, -9.055377934251737
669, -19.456091120175188
670, -9.88135979884646
671, 11.796240238636528
672, 22.8064867263638
673, 23.179682125857653
674, 16.01427481864266
675, 5.058411892023287
676, 1.635524968703976
677, 3.08600517978266
678, -0.6602886431246588
679, -7.2107326910954725
680, -4.040456399019604
681, 6.008983850711957
682, 6.296176093108443
683, 2.414557120657264
684, 26.692478218257747
685, 75.38321935573549
686, 97.50480449323368
687, 91.53516533236689
688, 82.72598694359658
689, 75.16643422559537
690, 71.35354975145674
691, 71.86489705304302
692, 77.83057459177144
693, 86.62208405065212
694, 79.45161391545662
695, 54.83069024877841
696, 26.920141084452553
697, 3.898317589373619
698, 4.198749026822043
699, 27.815620760809907
700, 38.10750809535239
701, 29.044070418978663
702, 18.418834319059897
703, 10.00563009092184
704, 1.1329522008818458
705, -8.500668112799758
706, -5.120142523122922
707, 12.923067059613459
708, 20.38908019966766
709, 11.940573711031902
710, 4.163506296235937
711, 1.800358953054456
712, 1.9061184759557364
713, 3.31592783798078
714, 1.3210029860802024
715, -4.793201179405514
716, -4.6729367648677
717, 4.18940699274026
718, 13.146931662489806
719, 18.884744472932653
720, 21.1423051839065
721, 19.259767023477252
722, 5.676947525702417
723, -19.117636055731055
724, -28.076210281074964
725, -14.265584464519634
726, 6.526629312642399
727, 30.070953074511635
728, 42.7399967743313
729, 40.740806036319555
730, 26.794061152104405
731, 3.6443133299962938
732, -4.131959231910514
733, 8.17704386006335
734, 19.07510170806563
735, 21.282894714593567
736, 18.53360463536228
737, 11.804719465029848
738, -0.21165042956272373
739, -15.571262060710069
740, -9.880602024131804
741, 20.428701475784692
742, 31.962816199016743
743, 15.845056038058829
744, 2.6203081516359816
745, -0.35767332315481326
746, -1.1114356737525668
747, -0.07243944454239681
748, 16.85011409562867
749, 47.45677172694195
750, 45.34008581639682
751, 6.508414986454227
752, -17.536670795880127
753, -19.960409876563062
754, -12.756995999690844
755, 1.6172647342882556
756, 19.028845656437625
757, 36.463351801041426
758, 42.549040209352825
759, 36.324597451306545
760, 23.771352383899284
761, 7.1158476630662335
762, -6.170622731581716
763, -15.478746521815992
764, -17.121870009857048
765, -9.09895603359655
766, 16.372852469876307
767, 55.07701264497882
768, 73.81266596524438
769, 73.02041227345671
770, 67.39861318157182
771, 56.991190480447585
772, 37.064256289021614
773, 12.736354252941055
774, 2.534033184250802
775, 1.8672220627422575
776, -2.964909301960688
777, -5.865454195734856
778, 11.808525286023723
779, 36.287741206540886
780, 28.516827024519444
781, 4.401366003648036
782, 0.20122616891148937
783, 9.375565142403502
784, 19.63819118747142
785, 38.522054553997805
786, 75.10135086907303
787, 102.01720306298012
788, 79.8918358762703
789, 37.41771116291511
790, 10.84077433796574
791, -0.2405755035169932
792, 1.3370562990094186
793, 15.504239709829562
794, 43.40224659633259
795, 63.01529437144745
796, 58.193690209445776
797, 39.12872139380215
798, 13.110146564114075
799, 1.7340040431390662
800, 15.105814009722963
801, 30.738087266026923
802, 35.52578286922926
803, 39.687879869202334
804, 46.50104596165875
805, 35.60724655314789
806, 2.421436434183306
807, -13.483935934128567
808, -4.0061790462868885
809, 4.366181221425904
810, 7.96670220375745
811, 29.794054732807126
812, 67.28141980712189
813, 75.77670024691997
814, 54.565794140989965
815, 43.44844258018293
816, 42.932261149249825
817, 29.412968058424667
818, 8.353970609706266
819, 10.305351484913444
820, 26.419843273652987
821, 20.7681988064287
822, 2.064520838936005
823, -2.411099984390603
824, 1.8642683891384877
825, 2.67851198999233
826, 5.286029637105457
827, 19.04841465488971
828, 30.878339852425597
829, 23.933038294791913
830, 4.298962384338665
831, -21.050145499800237
832, -31.848063291428844
833, -10.62571292902885
834, 18.616539834388277
835, 41.656494316396675
836, 55.56406947400592
837, 60.06018531753398
838, 61.58521270028814
839, 63.09263261270735
840, 68.44889677882566
841, 77.42282453813823
842, 74.46017636502984
843, 57.493353791187474
844, 41.51271741186065
845, 30.568441175353655
846, 33.26717251954233
847, 41.020482465975874
848, 26.608646819723617
849, -3.315993659666674
850, -17.03097874777086
851, -18.02460983194669
852, -18.237133975510915
853, -16.494612891730867
854, -9.083047350239212
855, -1.7256063432059818
856, -3.665203255459346
857, -2.652234918481554
858, 15.75460138334256
859, 33.853819823543745
860, 36.50706418018126
861, 26.825441445053002
862, 7.293533228326851
863, -4.860903052849608
864, -3.3238009100741692
865, 5.861880740565539
866, 19.74265068067325
867, 20.19331466828953
868, 5.18955632237703
869, -4.77619351226258
870, -6.510265256043567
871, 0.826848405936289
872, 14.680063406690351
873, 22.04707853765194
874, 22.05512863919739
875, 15.719079980388415
876, 5.817122514487892
877, -1.482900052684272
878, -2.3422113519472987
879, 9.775116808388702
880, 15.658111144573013
881, -5.475957816561277
882, -19.12537594296282
883, -1.022704335866365
884, 14.476661582889392
885, 9.214771589159682
886, 11.447833025213185
887, 29.924506890391967
888, 38.12943704462123
889, 32.80154710095576
890, 42.39194374420458
891, 65.95918919235737
892, 71.04338367575474
893, 55.520006139463476
894, 27.077724966491587
895, -3.513448654461172
896, -11.923944917863992
897, -5.800687339972683
898, 1.812051560575128
899, 8.692037362800875
900, 12.242061112835472
901, 8.840437351067521
902, -2.36302585284011
903, -0.16095733835027204
904, 26.039530161394396
905, 38.74725659490923
906, 26.367812368001978
907, 18.412941832691104
908, 23.028467960658418
909, 28.47439969471816
910, 34.149725440603106
911, 44.96821371205351
912, 52.72369379673364
913, 32.26190284655513
914, 3.397791340257754
915, 8.518772291617097
916, 26.901836442561034
917, 28.12417921854012
918, 19.831227812182078
919, 8.765131634960198
920, 0.19618546334368148
921, -3.517468072165684
922, 11.12886540019008
923, 47.41052990497974
924, 70.13128454932485
925, 72.26324331351589
926, 63.3292245370676
927, 49.75730711281449
928, 49.86277670458185
929, 59.81495591514886
930, 65.78609501930168
931, 64.6712953596707
932, 52.454357687124684
933, 34.49802857656414
934, 16.502302745644556
935, 6.185079686313657
936, 6.001137068711614
937, 4.616059505988233
938, -1.8314776301485836
939, -2.103773962658124
940, 6.166537445114955
941, 18.373025987211804
942, 29.844163855535953
943, 28.662899819507402
944, 14.930980380986512
945, -8.25375208830792
946, -25.51645601347809
947, -13.532997987387716
948, 9.436431767255272
949, 26.745492274642857
950, 29.496991249531675
951, 14.220165301861016
952, 2.2342815172196424
953, 1.5123552265695253
954, 10.691545825045978
955, 26.041530183527357
956, 25.02996030671966
957, 10.345647457485939
958, -0.08181279095697391
959, 3.822683831404902
960, 41.24284647075092
961, 79.28584355803014
962, 80.38308150022021
963, 54.429158754327545
964, 9.468974472967602
965, -22.805033912671206
966, -32.51886588043726
967, -16.221245500652003
968, 19.027288404624414
969, 23.567933511299998
970, 1.514488432610051
971, -11.303393856436742
972, -12.217724981567699
973, 1.338688167219516
974, 23.68220288716475
975, 46.57684943996901
976, 50.83598479704142
977, 26.136941348315304
978, 6.921525535099136
979, 5.170734957417153
980, 5.948329827031557
981, 5.322376625724246
982, 0.04323767506957665
983, -9.486496897988218
984, -20.74966843299626
985, -27.397211005736608
986, -18.778548620383845
987, -1.810626387571574
988, 17.90145393966941
989, 24.367196324258657
990, 11.372260045738585
991, 1.3196844850745038
992, -1.0030514970540025
993, 2.0924879328558745
994, 12.075092457212122
995, 34.74991244319335
996, 67.92054020735668
997, 99.12284934499712
998, 126.62118315474618
999, 148.7713379230745
1000, 162.35009428573085
1001, 165.33022159897428
1002, 154.84138862610507
1003, 132.6158458009695
1004, 115.6469756158067
1005, 100.89836350389214
1006, 67.59911432863737
1007, 24.577777216781215
1008, -5.224060954818924
1009, -21.07849743508632
1010, -21.30534668774908
1011, -10.62084178171881
1012, 7.7517343662157145
1013, 13.411385986432833
1014, 4.477945534777973
1015, 7.3646260581344904
1016, 25.802256000643865
1017, 58.06184826966273
1018, 93.48531272570835
1019, 118.34290268119548
1020, 126.82681524344844
1021, 114.69609466758538
1022, 110.61689258251863
1023, 125.67721273012921
1024, 129.68886086599105
1025, 116.00516693863574
1026, 91.26505661322062
1027, 61.046817585455756
1028, 37.47313474686234
1029, 24.158804452416007
1030, 18.673844904441466
1031, 12.76328995464337
1032, 0.7651372843656645
1033, -13.508947834976425
1034, -25.857572173636072
1035, -11.214530769148041
1036, 23.146881105334614
1037, 30.663440057720436
1038, 22.7166070184212
1039, 27.48060171898578
1040, 31.44957120748586
1041, 22.39778082099383
1042, 20.4459620196958
1043, 31.341570618463265
1044, 21.54735996114141
1045, -7.586262668215568
1046, -16.645253717323612
1047, -13.177024027728294
1048, -21.17028937806208
1049, -30.37824674174044
1050, -28.90941271248812
1051, -27.100163217628506
1052, -29.019732021207346
1053, -19.806948768223265
1054, 0.22284692536504735
1055, 7.662619215242557
1056, 1.0406890168151222
1057, -15.232818396846596
1058, -30.924664394591673
1059, -33.96070157599206
1060, -30.270770599098796
1061, -22.36263608106401
1062, -6.135447397738972
1063, 18.61659532277099
1064, 43.144550017598704
1065, 76.58847287711978
1066, 141.35363166742172
1067, 232.21517288070754
1068, 320.73770501305717
1069, 405.10063922419795
1070, 483.0260184698218
1071, 540.9926783001865
1072, 577.7187336875322
1073, 603.0809043988847
1074, 618.832025176046
1075, 626.2556390848777
1076, 621.7557961592556
1077, 602.1530391119431
1078, 579.5591440406433
1079, 557.3367522777908
1080, 517.0164829259293
1081, 457.5964656175902
1082, 390.1927434325489
1083, 315.6383279281881
1084, 233.67571305292313
1085, 150.35576310452961
1086, 85.57182319229378
1087, 35.53871384206559
1088, -2.1577933492962984
1089, -21.611546322413233
1090, -24.080258898378816
1091, -12.30367678186667
1092, -7.324973537338337
1093, -35.7767130741031
1094, -53.56918214793859
1095, -39.2740474778775
1096, -23.250532010905772
1097, -11.995402191782887
1098, -3.5152201477685594
1099, -2.521591274176899
1100, -19.501399143743583
1101, -20.61452445338182
1102, 20.28829044406484
1103, 47.52080991772891
1104, 42.01512974551861
1105, 18.631716473697452
1106, -10.741190073986218
1107, -22.608137466668268
1108, -15.51285720217038
1109, 11.935146233590785
1110, 29.310504252465762
1111, 21.28894186366415
1112, 8.25781715093217
1113, 0.6703649885757841
1114, 14.88629285424122
1115, 40.51409902665
1116, 55.978285959995446
1117, 58.78303510880869
1118, 48.48335528696771
1119, 36.43362577800508
1120, 25.49243645790375
1121, 14.250138930700814
1122, 2.4207875738748044
1123, -13.967365727525248
1124, -21.232317241916462
1125, -9.349483441066695
1126, 9.56979996031896
1127, 31.446339188461934
1128, 47.63760454139356
1129, 51.173475654130016
1130, 29.663095972526207
1131, 9.366486548773537
1132, 12.382123199307898
1133, 9.35283156496098
1134, -6.373297549511335
1135, -12.492610129723289
1136, -5.066510495746115
1137, 18.93051138852661
1138, 48.83260129519476
1139, 70.1765351052536
1140, 71.95716090601763
1141, 52.995640133481174
1142, 29.743489507908635
1143, 12.172673429568931
1144, 18.359738737107364
1145, 28.433993325482334
1146, 21.96560584538929
1147, 8.804382334924412
1148, -1.9076081341327153
1149, 13.062199406433137
1150, 43.669811122354986
1151, 56.16718693904295
1152, 48.6776223985471
1153, 21.897544620662302
1154, -2.996665959830352
1155, -17.539928092638547
1156, -16.06502999244458
1157, -5.352827505339519
1158, 0.51977663190155
1159, 0.026326177744522283
1160, -6.695786901022984
1161, -2.1797265408058593
1162, 12.664005782433378
1163, 10.696815721384155
1164, 0.09830226374288031
1165, -1.2825890493404586
1166, -4.079216379254831
1167, -12.995730582729266
1168, -9.336134163311726
1169, 4.866182940590079
1170, 7.7928424371930305
1171, 7.835945530511708
1172, 18.77164176606948
1173, 18.96492436760218
1174, 2.951369886772227
1175, 0.9334783720069026
1176, 13.055656524273218
1177, 27.801127246370015
1178, 45.594664667514735
1179, 67.37813192620251
1180, 73.16644609181913
1181, 58.53085763190302
1182, 35.67668028302705
1183, 17.83387304385542
1184, 27.269456049567452
1185, 36.56568126960974
1186, 30.352175590915067
1187, 20.397877799596245
1188, 7.418715570028326
1189, -14.628831701547824
1190, -23.609572350434064
1191, 6.432090647606856
1192, 19.657668478565938
1193, -1.020569465358676
1194, -8.098975778083513
1195, -5.342108488836857
1196, -13.389071748828428
1197, -13.101145926460958
1198, 7.561381070468997
1199, 22.305999659469308
1200, 29.175816967524042
1201, 49.33064367591032
1202, 68.33851378040345
1203, 66.61863000467201
1204, 46.91225842921085
1205, 15.425181265932224
1206, 0.7958404871969833
1207, 3.3011019512587154
1208, 18.568549205653653
1209, 35.18816502071695
1210, 42.68912507324967
1211, 40.17468888494204
1212, 32.73305656038701
1213, 35.93437869510217
1214, 37.770656971709286
1215, 25.26057843208855
1216, 6.7518378668473815
1217, -11.871569924745017
1218, -22.908070271541874
1219, -18.322197886662252
1220, 13.614829076412207
1221, 29.780995370533674
1222, 13.274145533553565
1223, 4.635615464320836
1224, 3.9048141342464078
1225, -5.51155531805216
1226, -7.933378939906106
1227, 5.792462342966246
1228, 8.338965622075193
1229, 1.9320991862014125
1230, 16.250720730879948
1231, 28.502098410213875
1232, 15.781794826953046
1233, 0.35845212491949496
1234, -8.596876363099
1235, -5.523869230290984
1236, 6.058054196740159
1237, 20.51709963830035
1238, 16.55247434314424
1239, -6.545172105201345
1240, -8.448738350930398
1241, 8.909552189426904
1242, 34.35072093914732
1243, 46.17633200039472
1244, 34.773363185735434
1245, 8.955999058151065
1246, -9.397813799147116
1247, 17.274123565081936
1248, 52.83356932460538
1249, 68.62784820562592
1250, 55.46227454814834
1251, 24.60295518818475
1252, 10.433745077486492
1253, 19.358373594715886
1254, 52.653128452569945
1255, 66.04941873033931
1256, 57.76150975472501
1257, 51.707649430831225
1258, 61.824762091897355
1259, 94.46429090515085
1260, 100.30440494626146
1261, 71.46093433138685
1262, 25.461435463209455
1263, -9.149382285251704
1264, -12.587362971450602
1265, 12.074262947682655
1266, 51.4486964250018
1267, 55.863643647661775
1268, 39.045783061484144
1269, 19.817635683275512
1270, 17.58283611047773
1271, 30.663531820629032
1272, 34.337788858765634
1273, 26.25977943966791
1274, 6.9313707933606565
1275, -8.973075555105424
1276, -13.460076993887014
1277, 10.20085223904789
1278, 31.57807243445677
1279, 17.388681316901966
1280, 0.08851881132432027
1281, -6.844837607599402
1282, 6.9745832768103355
1283, 28.775142634492113
1284, 42.242236939977374
1285, 33.72499214810341
1286, 9.134388804009177
1287, -0.8899609767631773
1288, -2.5628157337823723
1289, -2.8022906837632036
1290, -5.43819033769887
1291, -6.527954085227975
1292, 7.992467425787254
1293, 28.17659072427523
1294, 41.3843523323967
1295, 27.53052732373726
1296, -2.058842468887633
1297, -9.27497861894426
1298, 2.1192485217852663
1299, 26.378163765339195
1300, 36.3382658308592
1301, 25.506630502309235
1302, -7.633429681950474
1303, -24.082708761050526
1304, -8.676763127979939
1305, 7.278989098967941
1306, 13.108936009212812
1307, -2.6606708966646693
1308, -15.086439653576235
1309, -11.407728746600696
1310, 19.493959841904143
1311, 54.54922698581595
1312, 60.33801202764607
1313, 38.96288227257173
1314, 2.5255959317719316
1315, -9.161037039396433
1316, -4.347996776511536
1317, 7.249618780558194
1318, 27.952660791281232
1319, 49.60419283745614
1320, 51.81484221071787
1321, 42.12561403312793
1322, 26.586207324619863
1323, 4.614867453687111
1324, -10.522629265522482
1325, 3.8662161807696975
1326, 22.540373630171416
1327, 30.149378434868595
1328, 21.540465723192938
1329, 2.966646023820431
1330, -14.758691502502188
1331, -14.293127860380082
1332, 5.71150897158077
1333, 28.964666329430656
1334, 37.353081667351034
1335, 19.680959231153793
1336, 3.2772559195964277
1337, -0.9596427384085473
1338, 14.989020395890293
1339, 23.857797399145966
1340, 15.271015075379182
1341, 20.129222813390697
1342, 29.49659687201347
1343, 27.302191597201272
1344, 28.401616305945026
1345, 29.334942640202826
1346, 0.39343988805376284
1347, -10.872699495304005
1348, 28.579507710771395
1349, 48.312732330212384
1350, 40.697000469852355
1351, 23.316664992584265
1352, 4.231916693880521
1353, -7.064501443947847
1354, 12.319697835325314
1355, 37.549174477720044
1356, 33.35079034118644
1357, 18.60139504106246
1358, 6.3692940668925075
1359, 16.45315747211953
1360, 20.020276375230424
1361, 2.219741081414213
1362, -12.172120514044764
1363, -14.066587058250661
1364, 5.550458833007724
1365, 40.64745043746643
1366, 72.65891504946194
1367, 54.6055858863765
1368, 24.446871237206324
1369, 16.485397542582177
1370, 32.09930718823216
1371, 49.16286842761565
1372, 34.095359151373486
1373, 15.546974249245977
1374, 9.897271550490586
1375, 27.251467404827963
1376, 51.4697572274672
1377, 65.62569086453277
1378, 41.55585802946371
1379, -0.6222219861438134
1380, -16.40210836044389
1381, -1.4011003015666574
1382, 31.210935836342287
1383, 25.301425176950033
1384, 5.591629832702893
1385, -3.635404356491563
1386, 0.2499218523462332
1387, 18.684049933131973
1388, 52.12020649162332
1389, 62.61136415841975
1390, 46.605096869981935
1391, 34.270235845966454
1392, 36.114419258588896
1393, 51.16488704019048
1394, 38.83711348597717
1395, 16.009824076173572
1396, 16.039813882814997
1397, 29.4270610393869
1398, 48.0501376096654
1399, 62.695813798456584
1400, 48.84332369258027
1401, 3.934110447759849
1402, -20.40176260178214
1403, -20.17309175027276
1404, 0.2984136006625704
1405, 2.841120920727917
1406, -8.435077789530624
1407, -8.905832359318993
1408, -6.656595631609889
1409, -1.1391444002374556
1410, 21.369435539897495
1411, 29.261034125784136
1412, 8.668817677677907
1413, 21.295378590186374
1414, 41.31578874034585
1415, 25.08767804447689
1416, 4.2532433990973
1417, -10.266379154730203
1418, -16.75652629727938
1419, -4.6512640134551475
1420, 20.821151339614516
1421, 16.61292814026001
1422, 3.040382226091424
1423, 0.5912674139708542
1424, 13.320746262659668
1425, 28.053959169835252
1426, 26.26189490723391
1427, 12.569936238138325
1428, -1.9392737328862495
1429, 2.9876352355368
1430, 4.962828196793453
1431, -3.4617111001443845
1432, -11.971757462304595
1433, -4.615829598592427
1434, 23.636576378548853
1435, 33.92435656297857
1436, 24.97672426565805
1437, 3.966862909998781
1438, -13.074093570191508
1439, -8.925110819710426
1440, 39.67893336103407
1441, 54.50571817029959
1442, 26.935256906529503
1443, 12.979616994508433
1444, 8.537175086669777
1445, 11.676534819325752
1446, 35.289321151636614
1447, 35.90189016023487
1448, -8.56851563535929
1449, -17.729267214898755
1450, -3.540782813062833
1451, 6.411151139659523
1452, 26.112128201697487
1453, 39.913975034244686
1454, 18.307471133690342
1455, 10.505418196590654
1456, 20.0365649672749
1457, 8.765206589782792
1458, 2.202294884738876
1459, 7.533979961841396
1460, 7.469165984909523
1461, 3.420456367155566
1462, -3.2262433084624718
1463, -14.096582570326973
1464, -15.504729077695629
1465, 6.151517490083279
1466, 50.705945683762366
1467, 84.40142929017657
1468, 70.7523278173021
1469, 71.43227268078044
1470, 85.85546277245794
1471, 87.34744618940204
1472, 100.28204704733616
1473, 108.04286551539008
1474, 57.21585971623699
1475, 19.858475170211932
1476, 17.598814015578682
1477, 14.689358608144175
1478, 6.420116607031559
1479, -4.338395883900375
1480, -0.7671698953745363
1481, 14.516700088329344
1482, 35.12655873767653
1483, 37.742433743243964
1484, 20.312634189516757
1485, -8.68394630298917
1486, -4.175334008059508
1487, 21.708305827361983
1488, 42.63796603915671
1489, 22.152899276380595
1490, -8.347280914369549
1491, -0.7334022617214941
1492, 20.83946939274483
1493, 40.42071128318639
1494, 41.0536032811724
1495, 8.313517126302031
1496, -24.35558475194739
1497, 3.5199230765638276
1498, 21.039385168160152
1499, 14.37707267746191
1500, 9.025925327969162
1501, 3.419938095220459
1502, 5.199656996125668
1503, 35.877460746256475
1504, 46.058349149882815
1505, 29.442674444834665
1506, 28.315437746776297
1507, 34.42995939474076
1508, 34.73397013339945
1509, 6.0781371913853945
1510, -18.035161380830687
1511, -20.169282694178946
1512, 3.6328414980735033
1513, 26.874812197389474
1514, 29.653909038212987
1515, 3.235112881234272
1516, -10.819869830926109
1517, 5.573602128838047
1518, 28.55809395426786
1519, 32.93442532466088
1520, 10.950240910616685
1521, -8.904632954664521
1522, -1.0493270011124878
1523, 37.436811184528324
1524, 45.5196913600671
1525, 27.769467405602427
1526, -2.6176844252195224
1527, -23.38225549875733
1528, -16.52288978889419
1529, 19.201758680607327
1530, 36.70300789990415
1531, 38.95902411170073
1532, 37.710713549823595
1533, 50.5416202879569
1534, 60.51943776503913
1535, 53.77809394366386
1536, 27.60545742379918
1537, -4.691858975851574
1538, -27.086133832315227
1539, -13.34433956714156
1540, 1.9515717246590611
1541, -0.3349190157996418
1542, -3.645817255989641
1543, -7.5939283535726645
1544, -11.970517911865045
1545, -13.224323946565164
1546, -13.211254015421673
1547, -8.320237076681678
1548, 16.66549499262692
1549, 30.219431575803355
1550, 18.05057678127787
1551, -9.347357809536788
1552, -17.468624539073517
1553, -2.3653086549429645
1554, 6.282254359198305
1555, 4.234299502709291
1556, -7.488428312401993
1557, -23.992969532972893
1558, -12.94619137130212
1559, 9.924960725418714
1560, -11.25408271050128
1561, -24.38946921567458
1562, -17.23900187464824
1563, 2.6087703129187503
1564, 29.603496625862135
1565, 44.520672591912444
1566, 27.973219104494092
1567, 37.949608612120755
1568, 66.01989982815303
1569, 80.2311008129227
1570, 81.08633020094476
1571, 72.75303638905552
1572, 73.72433240752525
1573, 122.74557188655672
1574, 200.1012805430828
1575, 268.30529454523366
1576, 325.9807908182602
1577, 364.5309357293736
1578, 380.75937602941303
1579, 382.88832894918414
1580, 382.4142556706147
1581, 379.4285066366383
1582, 359.18588042879765
1583, 325.9231394095714
1584, 274.9381474086531
1585, 194.51901454418567
1586, 120.45998312271786
1587, 68.68623220992322
1588, 24.062478555765665
1589, 2.390547042989965
1590, -13.686147194168825
1591, -41.56503042758732
1592, -29.75378605849255
1593, -10.146472964012446
1594, -13.49119488979477
1595, -19.315343589796157
1596, -36.140756104624415
1597, -55.78129151342864
1598, -28.42764989870193
1599, 2.807319517453834
1600, 19.319060802867625
1601, 24.40095736360854
1602, 25.56821426883016
1603, 21.188811819881266
1604, 5.373840794581611
1605, -13.339843144946826
1606, -15.680165584664792
1607, 14.36490848289941
1608, 46.6543744468122
1609, 52.27785203043641
1610, 23.194493363042966
1611, -6.294460115734182
1612, -8.624893050451192
1613, 13.202088999144962
1614, 19.977675161104344
1615, 4.891379419927944
1616, -14.361223627008258
1617, -8.802412569612443
1618, 11.415339929733818
1619, 36.22470211252676
1620, 50.51965954434809
1621, 36.3671458436811
1622, 28.14885454267278
1623, 39.19695376585696
1624, 30.572142443126268
1625, 5.438762688554107
1626, -20.091890676255844
1627, -21.00737803614038
1628, 10.814915733728867
1629, 46.049829981098355
1630, 42.28885649041058
1631, 22.58709912041104
1632, 8.197612538936482
1633, 7.841263203734798
1634, 2.432943452177824
1635, 4.156915143646984
1636, 17.552289128686425
1637, 35.27242663056131
1638, 37.394755476518185
1639, 20.67215857146175
1640, -4.583204102907985
1641, 3.322248166000918
1642, 19.45151192034791
1643, 22.965103638025994
1644, 24.63112178834217
1645, 37.417348486116225
1646, 53.54233754806637
1647, 47.21066501698169
1648, 8.645931230546012
1649, -32.86172583389316
1650, -48.16012389705111
##END=



