##NAMES=
##LOCALITY=
##RRUFFID=
##CHEMISTRY=
320, 5.49579371112668
321, 22.166466650139228
322, 30.51957812923729
323, 24.83675877280848
324, 11.160152972544438
325, 0.0965020851231202
326, -6.3004089941009624
327, -1.5565841413044836
328, 13.714348284761854
329, 22.254184138391338
330, 19.86987944932207
331, 15.708014559399544
332, 14.787565531350992
333, 14.01781002691996
334, 9.487351235540245
335, 7.354208919745361
336, 21.79303591640428
337, 48.661920301187365
338, 61.72713572026214
339, 57.657023059878156
340, 58.93913030378235
341, 74.10878325881595
342, 85.27094401176555
343, 77.70119643889666
344, 60.87188643817899
345, 52.32174590571094
346, 49.88420666834645
347, 43.561445275948245
348, 34.283994220117165
349, 43.668795189215416
350, 72.18064640865305
351, 97.48638082174057
352, 108.0788301638936
353, 104.9563138940066
354, 89.24913216747154
355, 68.0808824707924
356, 58.53645043867846
357, 59.55458635160858
358, 62.00547660618258
359, 64.21944484733785
360, 60.99474779215598
361, 50.7342795626264
362, 33.45362302412468
363, 9.162568720795207
364, -8.648628970361642
365, -4.572543739505363
366, 13.454810876551164
367, 22.282934966533503
368, 22.064623681818375
369, 21.909976870129412
370, 22.96958770292167
371, 20.021621184829655
372, 11.333900849346264
373, 4.130993773352429
374, 3.805702969694039
375, 4.673531943508806
376, -1.957342572746029
377, -10.134973580220276
378, -2.474979431828615
379, 18.887957666787543
380, 29.51975486161382
381, 25.920653316068638
382, 18.24468242904595
383, 9.983792271175616
384, 0.30073361215204386
385, -11.341275861761915
386, -17.813193465121913
387, -8.045232005652224
388, 11.723980158959876
389, 22.123607205607414
390, 22.671938615167164
391, 17.149546083140876
392, 6.8346394804914326
393, 1.0066331360856111
394, 2.5264937661843305
395, 3.265743999071674
396, -1.5634441635613712
397, -7.520577218539984
398, -9.643642278239668
399, -8.873739565624192
400, -6.860488899411621
401, -3.482277082135397
402, 1.5541854893219806
403, 8.03688739557947
404, 8.931998397489224
405, 2.913053109794646
406, 2.756388734747361
407, 14.360191584290988
408, 37.51304687066954
409, 69.52637784495664
410, 101.48699063243566
411, 117.49062919637845
412, 120.1350836872366
413, 119.04013309804509
414, 115.58842343209108
415, 113.78799409893259
416, 114.22736493649495
417, 114.95813698616689
418, 115.28973775424788
419, 113.06413470420694
420, 106.93955992845645
421, 102.63235736795195
422, 107.01471121846566
423, 118.47561298537016
424, 133.4047657318531
425, 148.72586593984306
426, 152.5575796987771
427, 144.17191515576542
428, 127.73943584075141
429, 104.46421591060243
430, 80.49471811968715
431, 58.254868675872785
432, 39.8498835777209
433, 26.759037920171977
434, 17.043285019674386
435, 9.833305449431009
436, 6.013073017571969
437, 9.040283518337674
438, 16.870520785926146
439, 18.01401053936206
440, 12.097296044384166
441, 5.6913999450493975
442, 1.0278359658163936
443, 2.0120075875709063
444, 10.440490995709979
445, 26.120581429768436
446, 49.05835891056722
447, 64.82409142845017
448, 55.42089240064979
449, 30.92713886410388
450, 13.475423551084305
451, 3.8179653260876876
452, 2.243362172607476
453, 7.6698420009879555
454, 13.60696596957223
455, 18.5385508344923
456, 17.597476056543655
457, 9.364704968891374
458, 3.687573453049936
459, 6.460351957610783
460, 11.26259576799066
461, 12.139371549200405
462, 8.37843174103591
463, -1.2492826480006443
464, -12.236665600068363
465, -12.252059600396933
466, -2.178993144128299
467, 10.497086476006189
468, 23.79785176910923
469, 28.12734725964083
470, 21.451833996193955
471, 9.620020743871692
472, -4.92620822177264
473, -13.309399645406074
474, -10.160712416742626
475, -2.0891264743545435
476, 3.7689139714702833
477, 7.059890689494296
478, 6.721776350309028
479, 3.6720575143986025
480, 0.8518128521041035
481, -1.1641281296854231
482, -0.6095676663651375
483, 2.2699410785025975
484, 2.2080130755598475
485, -1.8338960998162293
486, -4.518762800757486
487, -3.9315137514206526
488, -0.435613934678031
489, 6.051090043975819
490, 11.215039745119611
491, 10.438805085513877
492, 6.447233034585452
493, 3.970183159504586
494, 2.248139002424523
495, -0.806124205555534
496, -4.994786316535738
497, -7.968735959336755
498, -9.629228528845942
499, -9.582228451858327
500, -7.410743388731589
501, 1.2628072049146795
502, 18.312299234154352
503, 33.75471499741411
504, 39.98530913697846
505, 44.450408215928064
506, 57.38610579234751
507, 74.84831319685077
508, 97.470418161407
509, 124.90439121986446
510, 156.4613267241948
511, 186.02111250465873
512, 195.26674757049068
513, 187.83637150960544
514, 186.34453359160716
515, 193.53471368863893
516, 208.63588466382066
517, 231.1289129303441
518, 256.0987386000138
519, 281.3972922280602
520, 288.4866605686916
521, 268.6739645757998
522, 241.4984586888711
523, 220.9915442085569
524, 205.67035407463686
525, 193.8712681074726
526, 182.44523516927734
527, 166.01950816883254
528, 146.25971123259092
529, 127.59697620922225
530, 110.88252275119908
531, 98.48651750614158
532, 90.05313007030713
533, 82.30965837263966
534, 74.45548882788103
535, 63.88275107171353
536, 50.562371756574066
537, 49.21611321452269
538, 57.823403381708204
539, 63.3022857372755
540, 59.029678898923294
541, 47.01285522537796
542, 28.734341998139826
543, 12.7412510532547
544, 9.788222688722954
545, 14.87602274609958
546, 20.85694363133007
547, 24.968155028059982
548, 24.505871934417883
549, 21.29712310796731
550, 21.710189600156127
551, 26.456553871786355
552, 36.53869857202403
553, 50.52111062312406
554, 57.443420592776874
555, 55.53428417689679
556, 48.61853369714686
557, 37.94211378965997
558, 27.17452681531995
559, 17.727554691210344
560, 9.174449419246457
561, 1.2912771696494474
562, -4.6705456655026865
563, -8.46696890118551
564, -5.6138341617388505
565, 9.427709658327785
566, 28.02445457858198
567, 36.19787041312361
568, 35.189536379459014
569, 27.893027101654752
570, 15.596356631726167
571, 1.6946105840236214
572, -10.974886343085245
573, -14.18179218592445
574, -9.116649906253315
575, -4.931367408596543
576, -2.088978855736059
577, 3.8245317972525754
578, 13.719866616961326
579, 25.806140171690686
580, 39.19586399293553
581, 46.75972646019977
582, 45.80355181006894
583, 36.38795016303834
584, 18.643945144956888
585, 2.817544304503599
586, -4.263093318091023
587, -4.762670317686798
588, -0.28999149394940105
589, 5.87974557471216
590, 9.224712026697262
591, 10.327403539274655
592, 10.150025433819792
593, 9.00717545096336
594, 7.535756020133022
595, 5.149069349364254
596, 0.18599869755416876
597, -5.421286480580193
598, -5.1300479544872815
599, 1.2249623609807259
600, 12.036474787736324
601, 24.80006551283327
602, 26.726058495976986
603, 17.00257946085071
604, 6.735072522620612
605, -1.1296370102541005
606, -1.1187894334029806
607, 7.789904734209358
608, 15.946326752464074
609, 19.685827623237856
610, 15.078319634358195
611, 0.6178316048615216
612, -8.662124192886495
613, -5.208078907470963
614, 5.134557303822476
615, 18.958795540753727
616, 29.997634725616308
617, 33.01498271313176
618, 33.40185087329405
619, 37.42780312291893
620, 44.101609917020596
621, 51.964861660652105
622, 55.8292468231557
623, 46.36638708933515
624, 28.2799150667488
625, 12.366207003198951
626, 2.0766035421440847
627, 5.848081970140811
628, 20.94423910487467
629, 35.136945049320275
630, 44.80546338325303
631, 39.159818688713585
632, 20.824257949415824
633, 7.892852428108881
634, 2.8966268115127605
635, 6.943121919979603
636, 18.743445233737475
637, 24.12106188385178
638, 21.116580619160004
639, 16.837601317687813
640, 13.273024705237276
641, 13.470650241240946
642, 18.160717887454894
643, 24.908463307846432
644, 32.539893225943615
645, 33.84162702829303
646, 26.260696911982677
647, 20.801448742653065
648, 22.530656490894444
649, 25.401108455368103
650, 26.05044755531162
651, 21.54429838057399
652, 10.040007629646425
653, -1.1200235429951135
654, -6.564847315607494
655, -4.436498544072492
656, 7.576612472734041
657, 21.20363147572789
658, 27.56199792113739
659, 25.7731876744881
660, 14.796583229194994
661, 5.079075551484948
662, 11.368134470447103
663, 24.096618022153734
664, 29.06624118362288
665, 28.78384327849949
666, 27.945124972661233
667, 26.40805179438962
668, 23.717962236249605
669, 23.490565856629928
670, 33.7576898961006
671, 48.10952308899823
672, 50.015026514210604
673, 41.900179232358596
674, 32.505987106571865
675, 22.38235807658043
676, 11.682779326624313
677, 1.465682843584318
678, -4.621057782988828
679, -5.948588620529108
680, 0.8783027272172603
681, 15.553016646112383
682, 32.66139315420969
683, 48.923301440314845
684, 52.3511724055968
685, 44.737053966008034
686, 41.51747757168391
687, 43.16006403090432
688, 41.49825552236166
689, 36.227282404559446
690, 32.328480671366606
691, 29.927972005221363
692, 24.957489909137166
693, 17.99980608113242
694, 17.570175323382955
695, 23.88216828383861
696, 27.210283431248627
697, 25.37512221140628
698, 16.366647435968616
699, 1.4266552845169826
700, -5.572941227054116
701, -3.046004717474034
702, 2.5648060775797603
703, 9.607005318746133
704, 11.75890343802007
705, 8.536512067070817
706, 10.749203085605586
707, 20.662951582608002
708, 31.93021583840141
709, 43.41006248475583
710, 57.96842988736762
711, 75.12923007598783
712, 80.42188658965824
713, 71.57947545653678
714, 70.375603958998
715, 81.65055840675973
716, 87.19063812936065
717, 82.02863312189379
718, 71.64540367911741
719, 57.991152859136264
720, 44.88299246704946
721, 33.82136471663284
722, 29.16313361730181
723, 31.873926940279944
724, 37.00818425905936
725, 41.98816089743832
726, 33.06164466568589
727, 8.516315055865334
728, 2.4675372209285342
729, 22.09212904069568
730, 35.129226170050515
731, 33.01792329686691
732, 31.507049892955138
733, 34.28599745451493
734, 28.03101484375361
735, 10.889064251011177
736, 8.241958972887687
737, 24.853580734046545
738, 30.073372211019887
739, 16.76470245071141
740, 2.732977276448537
741, -6.601122754470907
742, -9.956685737579392
743, -7.4181862921864195
744, -2.1489867253731063
745, 4.896915375062235
746, 8.228833986018572
747, 7.278318302031039
748, 9.643206775932867
749, 17.010252008817588
750, 28.4085546822414
751, 41.36143667511692
752, 38.137632532259886
753, 17.838227516713687
754, 1.5735491759353408
755, -5.545805107439946
756, 0.6154901188954227
757, 18.984253382068573
758, 33.07872819283739
759, 39.88563876989451
760, 38.579378814940355
761, 30.367948133345863
762, 22.45046784752526
763, 16.275491779523463
764, 13.718134150981314
765, 12.968395507268724
766, 4.685407626117694
767, -6.889597698802845
768, -2.572181022788527
769, 15.98914332382651
770, 32.766406262325745
771, 44.5127215021389
772, 45.46074699595715
773, 36.977826615322556
774, 24.857802987662126
775, 11.732486848103008
776, 3.8684269635916735
777, 3.6745826637888968
778, 15.321918577066072
779, 31.1190216425191
780, 33.759972044166034
781, 31.459754617023236
782, 42.53457735814527
783, 55.04229663860065
784, 46.06754687116245
785, 29.304777991151013
786, 27.817326515655623
787, 34.116530430390185
788, 37.02306884056475
789, 39.313706904476476
790, 44.56723137161475
791, 42.795636156892215
792, 23.197207106666838
793, 5.842515636963753
794, 9.865654121168745
795, 25.759616449755868
796, 44.53898948960773
797, 50.80599163773877
798, 34.361864096163345
799, 13.120082851198504
800, -2.2007923920530175
801, -3.944957663760306
802, 11.300597281772525
803, 34.490279334251454
804, 60.32794013025432
805, 67.08061088989825
806, 48.882356453323155
807, 34.68724697445373
808, 32.200372687409526
809, 27.09688230236725
810, 16.733093412596645
811, 10.533643822461727
812, 8.9459333547818
813, 1.180796992107389
814, -10.214822730467176
815, -2.853213490351436
816, 21.30923737178159
817, 35.43447694026099
818, 39.13459139120141
819, 42.500124459546214
820, 45.691845966530764
821, 46.47728286611914
822, 43.83411086616934
823, 35.61760143664719
824, 24.10395573908886
825, 14.080114215698131
826, 5.81303071027628
827, 0.10042341912549091
828, 1.1287070772355037
829, 15.312988751962166
830, 27.46604990552578
831, 21.73145715190276
832, 16.996520894785363
833, 28.6952727846367
834, 41.30703824665852
835, 44.9218970298989
836, 50.18295810950531
837, 61.98142572395727
838, 64.71809383653499
839, 53.10303039240921
840, 45.35608333205391
841, 46.40103522982122
842, 44.57161180195931
843, 37.578798283033166
844, 31.170804152643314
845, 26.064529032631754
846, 19.725352993822526
847, 12.609863488288056
848, 8.332847804501398
849, 7.930899067011296
850, 10.682095601598803
851, 13.833678740096047
852, 12.513470922323222
853, 10.867831567266649
854, 17.593697026966993
855, 24.17076592412218
856, 17.283012090705142
857, 6.379397826858167
858, 2.4299885055856976
859, -0.8794595060332995
860, -9.256985149965658
861, -10.079188142713747
862, 4.4256522675916585
863, 14.816878154974574
864, 11.726975472817003
865, 13.605406957679179
866, 26.066642307201846
867, 37.63432173410661
868, 45.4367942686913
869, 51.27222249421038
870, 54.06592860882188
871, 46.409883640634234
872, 31.2303708827219
873, 23.50469946966973
874, 20.21127482470274
875, 8.969483357964691
876, -4.695640717403194
877, -8.412486794499955
878, -3.485831569520087
879, 8.60616655818194
880, 20.70003824146852
881, 24.750622797828782
882, 21.315868344977844
883, 11.019913497995276
884, 3.066977911872982
885, 2.6264740341775905
886, 7.063683839039868
887, 14.128913742039458
888, 12.75232718682696
889, 2.400809782315946
890, 2.1868553949907437
891, 13.448126402264052
892, 24.171174447329577
893, 31.840472641194992
894, 33.26068974899522
895, 28.171571771653817
896, 16.59193039254751
897, 4.14740273952998
898, 0.539474995649698
899, 0.761608611461952
900, -1.3864449675261312
901, 0.29871445924118234
902, 10.98578115154396
903, 23.55661070885367
904, 33.95174363914748
905, 39.24064478233004
906, 38.313895557609385
907, 31.353087935767462
908, 20.493241943058138
909, 19.138248812007078
910, 26.445520295787446
911, 28.759007574108864
912, 26.534361682365216
913, 25.477222507090573
914, 23.238090890846706
915, 14.497327489522831
916, 7.148338195739598
917, 12.522624402645533
918, 17.902538080914383
919, 13.220304916186933
920, 11.03169845263983
921, 17.873139572948503
922, 22.960018514566627
923, 22.535022594519887
924, 20.043238807842727
925, 15.91611997220707
926, 7.558187000770431
927, -2.729237767382301
928, -4.99978170542704
929, 1.6590939913598959
930, 18.32796706537124
931, 39.073182854790275
932, 54.439326828936146
933, 59.497677367229926
934, 49.4047640718386
935, 37.083439584902635
936, 30.690337631769353
937, 23.51140154565701
938, 13.24421598586514
939, 5.911393821578031
940, 3.7679304257023887
941, 6.626744497275467
942, 13.81374006531314
943, 20.984512354672006
944, 26.79720812902815
945, 28.853012641046917
946, 29.58100636135441
947, 32.941222012509115
948, 38.48426260950805
949, 45.584161312245215
950, 45.14026534453319
951, 32.534792336801274
952, 20.529984634638595
953, 13.900918868261897
954, 13.052908545937498
955, 16.019141954427823
956, 12.633681297776548
957, 4.444575827518975
958, 0.7278970081354146
959, 0.2831851015630491
960, 0.36714816274115947
961, 2.398645754419249
962, 7.9507120495757135
963, 9.174756527619365
964, 1.2268761808270483
965, -6.36556413630683
966, -10.170819734200677
967, -7.4450335329520385
968, 2.001206193192729
969, 14.55852130470953
970, 26.750665364943643
971, 30.461735465461516
972, 26.85830017655985
973, 19.223933525729535
974, 13.956021171422435
975, 17.914607307033748
976, 20.000797234013135
977, 13.606380792238724
978, 6.747120266064712
979, 3.0318643535974843
980, 7.49224423644614
981, 18.42456495585543
982, 24.75901435988135
983, 25.298264193229443
984, 20.42789248165741
985, 10.203352822764145
986, -5.304567501623296
987, -13.933066382266134
988, -6.062433745840735
989, 2.1310103043651907
990, 4.054639771219172
991, 11.670341217136183
992, 25.14543126155786
993, 28.1270712992457
994, 21.93668800901446
995, 19.27456691083171
996, 21.351474967086233
997, 28.628831869882788
998, 40.04386704271997
999, 54.298756838245936
1000, 61.41643838555251
1001, 55.86001458362398
1002, 39.14047121881708
1003, 15.630061491235665
1004, 10.145764447790725
1005, 23.518861230727452
1006, 38.98999715959553
1007, 51.449695223532444
1008, 53.555204029641345
1009, 44.288475750850694
1010, 23.126162750920457
1011, 8.222624995812566
1012, 9.417328307989237
1013, 10.710896979495601
1014, 9.149495641764133
1015, 23.998577030708248
1016, 49.431384122554846
1017, 60.028147382843144
1018, 57.6785760891712
1019, 49.03613808708201
1020, 36.70206017998157
1021, 23.416267179966553
1022, 24.840864376929858
1023, 45.925393325231425
1024, 58.633581361708366
1025, 55.04060232116717
1026, 32.78928772307654
1027, 2.481848447297125
1028, -7.44944693004777
1029, -6.328334007248259
1030, -7.455957761077116
1031, -2.0521269598768868
1032, 15.379918792360968
1033, 21.949624638607702
1034, 12.566384906997882
1035, 11.279231228556682
1036, 16.916708055320214
1037, 9.464225892942522
1038, -3.708712055899923
1039, -6.410882273365814
1040, -5.16195280722377
1041, -5.83174647320925
1042, -7.2948713092255275
1043, -9.268120982736491
1044, -13.10958140097614
1045, -16.248674552804232
1046, -5.271387906268956
1047, 11.035381336511136
1048, 8.233287595509637
1049, -0.9561592474844929
1050, -2.0019484272197587
1051, -7.655678173036222
1052, -22.80843034599002
1053, -22.0229539663967
1054, -5.749134506173505
1055, -9.877690901153983
1056, -24.98113782196583
1057, -17.860623033887123
1058, -2.3260884385640566
1059, 4.54611821912431
1060, 14.138460569150766
1061, 32.01222574832559
1062, 43.78490216478531
1063, 51.25426445842709
1064, 79.87322395946671
1065, 133.6517679440558
1066, 199.74514174348633
1067, 273.2384952287184
1068, 348.8278148809288
1069, 429.4566271386957
1070, 515.2044617604831
1071, 590.6785693195538
1072, 653.5668827216307
1073, 711.4143757639433
1074, 756.7987172322448
1075, 772.230665416319
1076, 779.7449917623835
1077, 800.4984491040188
1078, 800.3528196068612
1079, 765.7498459136532
1080, 715.1592580462323
1081, 651.461000421245
1082, 570.2828153882979
1083, 481.53855465904667
1084, 403.00804749359713
1085, 334.1595692979506
1086, 273.77908173351966
1087, 212.00834163150603
1088, 146.8684832823999
1089, 88.12015238847425
1090, 45.349278251023634
1091, 11.806215335654315
1092, -9.413879171013832
1093, -12.268357111004661
1094, -7.491436621765843
1095, -0.941927701605664
1096, 3.030859525754977
1097, 2.3321168905540617
1098, -7.928948681942302
1099, -23.410176242565967
1100, -34.55627585099137
1101, -34.065983884949674
1102, -16.498697911901218
1103, -4.750527274396063
1104, -4.7954127396344575
1105, -4.405253902840968
1106, -0.9899425221371985
1107, 7.202410299434632
1108, 19.015767388437098
1109, 32.49788212739668
1110, 33.10551690931925
1111, 16.04566338638756
1112, 1.9259408803770839
1113, -4.942912439953716
1114, -6.097705748749831
1115, -4.61843445760428
1116, -4.678760060810191
1117, -2.7066344763422876
1118, 3.032991781321016
1119, 4.259931245054304
1120, 1.2401654591021725
1121, 5.2599476280827275
1122, 13.90531512774237
1123, 20.69939946295426
1124, 24.72196954720448
1125, 24.770276097985743
1126, 11.899658572137241
1127, -9.853321461715723
1128, -7.421912698604501
1129, 15.634705996954608
1130, 42.61293774103683
1131, 65.17391873380643
1132, 76.09077877648588
1133, 65.87247856186991
1134, 36.45428714682339
1135, 16.689127934154385
1136, 8.959780722711457
1137, 9.947372453881599
1138, 17.63616122596386
1139, 28.9111636352784
1140, 37.460777425196284
1141, 41.64568747890894
1142, 45.60722024768779
1143, 49.38569985521258
1144, 51.644232160324464
1145, 46.85184764871474
1146, 31.079959276954696
1147, 23.050687852790816
1148, 26.745164960442708
1149, 26.44834086679134
1150, 20.397123199860516
1151, 9.745227768637506
1152, 2.76579713537717
1153, 6.303120867818052
1154, 14.90953499882471
1155, 22.469703000992695
1156, 12.357382028270194
1157, -6.841510105467705
1158, -15.092722945679043
1159, -10.274730551015637
1160, 8.24274305993049
1161, 20.93842785030938
1162, 21.406418851622902
1163, 8.553018627755591
1164, -3.454749266521503
1165, 5.74682540125923
1166, 19.260848941423546
1167, 26.378300517561684
1168, 35.470684934047995
1169, 45.92808535021436
1170, 49.1676713769923
1171, 53.60277839128321
1172, 70.35861134602351
1173, 83.89736167021465
1174, 88.18773272479598
1175, 92.52760065501366
1176, 99.30513118288013
1177, 110.19822217233673
1178, 119.55098274675379
1179, 122.2000788390053
1180, 120.64663898513072
1181, 115.92216390301155
1182, 108.70770171349841
1183, 101.02467298101942
1184, 96.12410590153718
1185, 78.17018724844388
1186, 40.59176494207509
1187, 16.85656121324746
1188, 10.87367879017188
1189, 10.304884362223675
1190, 13.734472646023733
1191, 19.141482451114825
1192, 13.670672303940364
1193, -3.3655082504208167
1194, -5.875234997690313
1195, 0.978091409290073
1196, -0.29110623296742233
1197, -2.7163829338577443
1198, -1.3138157513720898
1199, 1.6511544505731308
1200, 5.623066885662183
1201, 10.3005754877546
1202, 15.638322572415063
1203, 22.21301900931337
1204, 27.036180097329066
1205, 30.975143827175884
1206, 45.63545239617736
1207, 59.94620340645406
1208, 49.219151197730525
1209, 33.50041043247393
1210, 26.02689255291409
1211, 22.203338971383005
1212, 24.038142926213595
1213, 40.68110078249197
1214, 45.79404400636224
1215, 14.5572575811982
1216, -1.0352440380715962
1217, 12.364867856434557
1218, 31.980527156633457
1219, 49.63933670310598
1220, 56.45250125808934
1221, 38.50826154955632
1222, -3.9328669054194734
1223, -23.8965524702146
1224, -19.640856379708794
1225, -0.9815730634938973
1226, 14.94128576456501
1227, 17.210914241758587
1228, 29.21322174941008
1229, 46.987171594574875
1230, 41.57773085013207
1231, 33.065323772007105
1232, 41.26920453339471
1233, 35.73183195170418
1234, 15.235893179965615
1235, 14.704617634447914
1236, 20.085470030969873
1237, 8.948316331017622
1238, 4.380272851076143
1239, 13.323933460932267
1240, 24.333236007380492
1241, 31.797345537119327
1242, 28.938150750303294
1243, 21.252894555728744
1244, 12.494388011896945
1245, 8.724888613109897
1246, 14.290307567784339
1247, 37.46218640346274
1248, 57.06250416821649
1249, 62.67473432043562
1250, 73.56679213403913
1251, 85.73498646468443
1252, 79.68533379573842
1253, 70.85693283767387
1254, 70.07392959672711
1255, 63.27678969652743
1256, 56.253228741614066
1257, 74.39526115363174
1258, 90.9146586668578
1259, 83.902052892357
1260, 79.42662653310481
1261, 79.52529051715874
1262, 68.50464971107522
1263, 58.42921020298718
1264, 60.480379112271294
1265, 59.12030868150896
1266, 54.00857440508844
1267, 59.04672614022479
1268, 64.0478004385136
1269, 58.65912848141011
1270, 55.725762934553245
1271, 57.4270026078857
1272, 57.64876854973909
1273, 61.655663178219356
1274, 73.64482315840155
1275, 70.09952044262798
1276, 47.961833035739346
1277, 21.75411486536518
1278, 4.1542997521137295
1279, 6.152994926053793
1280, 13.00931494506824
1281, 21.068596459165633
1282, 29.910962945479923
1283, 37.41913721512617
1284, 41.81347011325806
1285, 47.032561884696406
1286, 49.56206129468126
1287, 35.40229065139033
1288, 19.329755673716363
1289, 14.676300389581115
1290, 15.380562008873198
1291, 20.143514632831057
1292, 29.790956561341886
1293, 33.746274499942274
1294, 25.449549698296437
1295, 20.59961941556503
1296, 17.427325969198705
1297, 3.0293217036323767
1298, -6.994546440453064
1299, -4.735456189727643
1300, -2.9188204525298715
1301, 1.6890255133970413
1302, 20.599153355820704
1303, 33.6117364253065
1304, 30.329843538546925
1305, 17.098055545483476
1306, 2.0553426701402486
1307, -2.794428366678858
1308, 0.3009666729598166
1309, 8.959910675657738
1310, 14.9533175134153
1311, 14.494455528059802
1312, 5.175447922497938
1313, 8.33726468664463
1314, 23.154352048005194
1315, 19.655669886980718
1316, 11.446264265295213
1317, 13.194781639252142
1318, 11.491941183943254
1319, 4.920477676282985
1320, -0.539125121193365
1321, -5.753915978046734
1322, -10.591636323318312
1323, -4.963900533761375
1324, 9.132887804183383
1325, 22.859312019029062
1326, 23.68313202184288
1327, 9.324463054041075
1328, -0.7070777219685169
1329, -4.854993106514371
1330, -4.991776906528116
1331, -3.2455113675933944
1332, 0.5018967684443396
1333, 8.925199509348317
1334, 14.324498108989815
1335, 10.895130852291118
1336, 8.742954807264255
1337, 10.02397046182
1338, 14.146329880292228
1339, 21.095274179591797
1340, 28.35224764945906
1341, 22.333997004815274
1342, 10.004206113436908
1343, 4.186245175983117
1344, 4.007972218624673
1345, 9.06630219974602
1346, 19.35753061559774
1347, 20.518148070150346
1348, 3.8919538348666265
1349, 0.6478936425579604
1350, 9.459343533196716
1351, 14.222376714930647
1352, 22.178410606885677
1353, 33.978705010056274
1354, 34.51759154133356
1355, 28.436350918732273
1356, 23.325755095257932
1357, 16.70904636081832
1358, 10.871945821471854
1359, 13.776336838598695
1360, 20.828463894162155
1361, 26.68258727629336
1362, 19.067795333496292
1363, 5.373598380625026
1364, 0.3270004467015042
1365, 7.29886930076691
1366, 24.52122796149513
1367, 39.25606935671624
1368, 39.773783020698374
1369, 22.77360590078638
1370, 22.735572651339453
1371, 37.050519404081
1372, 50.25744456515599
1373, 60.63258527087828
1374, 62.85334137797281
1375, 40.94211457031872
1376, 19.897109177765515
1377, 18.449545236180143
1378, 16.614538718386484
1379, 17.355359820471108
1380, 31.599281936873467
1381, 36.81560903598199
1382, 28.468587064526673
1383, 22.118828286637267
1384, 18.590595494206923
1385, 17.442622054536514
1386, 18.023483133508535
1387, 16.043311643756283
1388, 5.368836893637194
1389, -2.793693977908788
1390, -3.2360257673680053
1391, 10.03387093889603
1392, 22.338023191921707
1393, 24.063307385610415
1394, 22.27284343218855
1395, 17.14820557842563
1396, 8.102770004789704
1397, 5.375121361973584
1398, 8.019681220778011
1399, 3.947877401508208
1400, 11.867780696588397
1401, 34.87394237064575
1402, 39.61646861140764
1403, 40.123463267410784
1404, 51.71069390403045
1405, 37.878769230014996
1406, 10.466778693781293
1407, 8.140427482612836
1408, 5.8898942382732
1409, 0.5135470118718786
1410, 15.427331217208007
1411, 24.127298184478377
1412, 12.322781997574339
1413, 19.1015175517133
1414, 33.535773408709474
1415, 33.18733518801719
1416, 24.63784263721061
1417, 9.537588487472249
1418, -11.805893262047789
1419, -9.777683804055414
1420, 19.140594388671843
1421, 33.35408353474929
1422, 35.90845558315584
1423, 33.14518060111686
1424, 29.613168447861995
1425, 28.011748613837312
1426, 30.47549061431687
1427, 31.515187825332987
1428, 28.71005584847137
1429, 20.46279909210432
1430, 12.4749240410016
1431, 8.253942095213006
1432, 11.533265073856569
1433, 14.647175691308007
1434, 16.995053537590024
1435, 43.353024626507704
1436, 64.56669987778184
1437, 46.28971650678352
1438, 26.226222470935795
1439, 9.633676793499603
1440, -8.718303439459874
1441, 4.513188993496669
1442, 39.36752271614978
1443, 31.37408619816199
1444, 7.954713318913605
1445, -9.380555022561111
1446, -3.5492804854947053
1447, 22.378148301586975
1448, 58.69968139514822
1449, 71.99021145544646
1450, 65.92874510337697
1451, 53.23015288004433
1452, 46.13591100441124
1453, 41.473750745049415
1454, 28.871487167628743
1455, 19.535253326350585
1456, 14.677945745290003
1457, 7.501143505436289
1458, 7.513058027543366
1459, 12.283991261926872
1460, 0.7898392706930508
1461, -0.3347079662522674
1462, 17.38073917683414
1463, 2.7476521942056706
1464, -7.949428985706959
1465, 16.952428615338363
1466, 26.67697468515064
1467, 30.993102428401585
1468, 50.14858087168716
1469, 34.04512550217635
1470, 3.648471871921288
1471, 15.659152318181668
1472, 35.04472381322694
1473, 48.271981649602026
1474, 51.87700438274703
1475, 50.90660119029803
1476, 48.9259009029829
1477, 49.818695454041745
1478, 54.23234160268521
1479, 60.47675897591455
1480, 61.51971940004398
1481, 54.528713509909835
1482, 41.23445687883793
1483, 36.59962420443003
1484, 25.13070568432704
1485, -0.6682607785587606
1486, 3.2382542185566763
1487, 14.105190713788375
1488, 4.144724669586935
1489, 14.096772075656986
1490, 28.69344032237234
1491, 20.786327402101506
1492, 22.794527316563745
1493, 25.00620969450506
1494, 2.7557608361173607
1495, -2.5222688044416373
1496, 8.625358351645332
1497, 14.525285470047834
1498, 23.640178336790655
1499, 32.54120712581755
1500, 27.9746036909537
1501, 22.752484451723035
1502, 20.610246125238405
1503, 18.129255932975298
1504, 15.220091760981632
1505, 10.514703677273815
1506, 0.550435934136317
1507, -2.0411356442513124
1508, 5.818261918173448
1509, 15.389428537249614
1510, 18.527073397028175
1511, 14.8627834004551
1512, 16.502356084947564
1513, 20.108780967082225
1514, 22.501915693532055
1515, 21.169438218262485
1516, 11.378595416907615
1517, -2.240974735304121
1518, 8.203617174407213
1519, 18.814318225288503
1520, 15.497015788120507
1521, 12.391184676840908
1522, 3.875414033793618
1523, -8.386392771760825
1524, 1.6409222343236252
1525, 14.406172383780472
1526, 14.977318633109235
1527, 10.658734528865011
1528, 0.30207375673523984
1529, -12.910935683108619
1530, -10.988729383284863
1531, 2.4068926628731333
1532, 19.733267351640052
1533, 22.690476138334475
1534, 23.07641866704637
1535, 25.90602599367037
1536, 12.288446103034403
1537, 1.2573282374207793
1538, 3.7899861526530003
1539, 6.303345204009588
1540, 7.940561991765662
1541, 8.703530857623491
1542, 7.261487900196016
1543, -0.38272976516327617
1544, -11.348244464269783
1545, -8.453253542537936
1546, -4.643008632608485
1547, -1.6922138879306203
1548, 20.08859612514391
1549, 25.178135449022193
1550, 8.441668528469222
1551, 11.595390219608134
1552, 22.870786594824267
1553, 32.64329768900927
1554, 33.14817309487273
1555, 15.03339599163587
1556, -10.50443732398287
1557, -10.015865549933551
1558, 0.5893878556784102
1559, 8.236389286077042
1560, -0.30114999724969493
1561, 0.4352335050438114
1562, 17.376101822394844
1563, 47.20499041331152
1564, 73.14091627287985
1565, 92.89714263604083
1566, 119.33518299919535
1567, 159.99668499926258
1568, 230.93909115222652
1569, 339.7086349579546
1570, 413.1408407937728
1571, 460.75747131071796
1572, 502.2134254614267
1573, 513.2193218222441
1574, 533.5211415285978
1575, 586.5135829791054
1576, 619.612850095159
1577, 647.7143768915797
1578, 677.0700158854763
1579, 682.2180586566818
1580, 672.87257976127
1581, 653.1245088290497
1582, 617.249537269763
1583, 561.7262316945937
1584, 495.3830466849689
1585, 438.3709646495471
1586, 372.06346923210094
1587, 305.600553812262
1588, 259.4527275975505
1589, 194.5186190810624
1590, 137.93213309928763
1591, 124.641273872576
1592, 94.36541954269603
1593, 53.99632398623544
1594, 23.39436402894239
1595, -4.127466634022653
1596, -13.601731091227293
1597, 0.6049121291122219
1598, 22.81510674422077
1599, 22.361043511376693
1600, 3.087632885471521
1601, 3.9009281532350997
1602, -5.156726901517345
1603, -18.010332884820855
1604, -10.252124448561744
1605, -11.366984204214873
1606, -6.164103007775111
1607, 24.40903024044087
1608, 40.17644998450521
1609, 47.56291719261014
1610, 50.31223542352302
1611, 26.84456676849902
1612, 10.709959668157126
1613, 8.918565430794615
1614, -5.638001491905584
1615, -5.010462333105011
1616, 9.207154668425801
1617, 17.269848768058523
1618, 22.218102950794332
1619, 25.0860283706636
1620, 25.59925119741706
1621, 20.90084642641591
1622, 11.730931324353037
1623, 1.6068748128993775
1624, 0.170573177012443
1625, 21.946662578951987
1626, 55.25561459335745
1627, 62.244288807558746
1628, 35.30768388953891
1629, -0.9490193919056082
1630, -12.34184722684563
1631, -1.2511075729165668
1632, 12.740076864182242
1633, 15.373151828235223
1634, 12.293520763567585
1635, 25.226475954344096
1636, 45.4080993933718
1637, 34.3068439670418
1638, 15.88980162251221
1639, 2.7464231105263934
1640, 2.6257009737987573
1641, 18.10220212349259
1642, 26.53780801274661
1643, 17.85466416062718
1644, 13.12818166280465
1645, 8.214059599001189
1646, -0.5097983747472199
1647, -13.2404723612201
1648, -12.067002411953808
1649, 2.685956986164342
1650, 20.945000862442157
##END=



