##NAMES=
##LOCALITY=
##RRUFFID=
##CHEMISTRY=
320, 3.7208041477629195
321, -3.9694784531798177
322, -7.2372694962591595
323, -4.156601596292148
324, 3.476005322481342
325, 12.729293827742822
326, 24.18512033080424
327, 35.50270653745429
328, 46.50954785191561
329, 56.55618068539388
330, 65.50988007221395
331, 74.83378173083429
332, 85.33074781005917
333, 92.21334630612773
334, 89.42294618689084
335, 80.68994215709199
336, 76.35013531189998
337, 77.0446986431948
338, 83.04484231489914
339, 94.19595118980487
340, 106.6651998797156
341, 118.98287269449247
342, 127.76749001918915
343, 130.23669882354807
344, 126.75740525575566
345, 118.00896252286248
346, 106.8148202045063
347, 104.16221588837789
348, 110.04313697824773
349, 113.97256650821828
350, 113.37151916381436
351, 108.06443591049947
352, 97.96085992476856
353, 88.0412898565396
354, 83.9446605655462
355, 83.74431768650675
356, 82.80593341935128
357, 81.11122143767079
358, 79.58958074503698
359, 77.61751030972619
360, 65.44267818746312
361, 40.27696844165757
362, 18.239884121735486
363, 11.290088232198286
364, 13.183567702166783
365, 16.510473016010565
366, 20.774296001136918
367, 28.406563301383358
368, 37.21009115605966
369, 33.44534008189294
370, 16.108854553873243
371, 4.511227843492634
372, 5.656497316043897
373, 10.518642014417765
374, 12.231349353236055
375, 11.620273677840032
376, 9.899574562371981
377, 7.546815140145327
378, 5.928031528370411
379, 5.150119992637656
380, 5.326677187847508
381, 6.2364280748774945
382, 4.095459460829488
383, -2.359002961066608
384, -8.815799888229549
385, -12.847480580791398
386, -13.921093837907165
387, -10.8139675529942
388, -5.606206702103464
389, -4.407024770549697
390, -6.625889443938604
391, -7.784479819075614
392, -7.201820710948368
393, -3.7495305866407307
394, 3.226701678956033
395, 12.71955743075182
396, 23.388146970346497
397, 34.03778726944324
398, 43.22305084862842
399, 48.35580315632774
400, 43.388105295860214
401, 30.320178253525
402, 19.234599334272616
403, 11.112653472220927
404, 3.6857406128226557
405, -3.0516054336501384
406, -3.7345422023722676
407, 4.426725118069498
408, 15.751678171628555
409, 25.450965736172066
410, 34.3473403753942
411, 46.72212048985125
412, 61.856250354287795
413, 77.09487948806645
414, 92.25500392171466
415, 107.50880339838977
416, 122.5776071820435
417, 132.7155638918582
418, 136.35367198922518
419, 136.68519872235947
420, 135.69557454305823
421, 132.31710568917447
422, 125.26621155850103
423, 118.33263814346333
424, 119.94072266773765
425, 126.89155069540948
426, 125.03282303515607
427, 114.4692921461833
428, 107.88486202269132
429, 107.21316263461131
430, 96.43567624664138
431, 69.42774333841407
432, 46.17885054360204
433, 40.73503862859616
434, 41.761798105002526
435, 34.195401759929155
436, 22.9016334995913
437, 21.901566367462237
438, 26.2338882054878
439, 22.522438556781253
440, 10.792984071674255
441, 4.468441708656428
442, 5.466567852543903
443, 10.788799992122904
444, 18.631634931796498
445, 23.268096732313552
446, 20.81360651020009
447, 17.608861759517595
448, 21.56203524327225
449, 27.649212795417952
450, 24.844540845494066
451, 16.630309193769108
452, 17.563057111522085
453, 26.561279875538958
454, 26.676000778696334
455, 15.713134417371975
456, 8.511844168738435
457, 9.822578850350737
458, 11.275007790623022
459, 8.172375151997358
460, 2.8685443441902407
461, -2.0332641401237197
462, -5.5997996228009015
463, -5.732471194189884
464, -3.6287417407318117
465, -2.621187785012353
466, -2.4826807184924746
467, -1.4824125431389348
468, 0.3468523740418732
469, -0.13787478866743186
470, -3.539434347679162
471, -4.98950925393774
472, -2.5608252160586744
473, 2.2100898969395075
474, 8.398453721046508
475, 13.059636933014872
476, 12.814825562171336
477, 9.483536658260164
478, 6.563976273231901
479, 3.610389293057324
480, -1.0358492338664291
481, -6.679577384290042
482, -9.134690200151908
483, -7.984915850698144
484, -3.241907177091889
485, 5.359740671681948
486, 14.39341045858464
487, 22.333605008512905
488, 26.133452548872583
489, 23.855828860928113
490, 19.360377085507253
491, 16.737291556587024
492, 14.522733442657227
493, 10.175150175763747
494, 4.839646355341074
495, 1.777530440929695
496, 0.38176618149236674
497, -3.7219178466748417
498, -10.260778747524682
499, -11.287132382444497
500, -5.657229565501666
501, 0.6126855102090758
502, 6.135475567131607
503, 14.442951303589098
504, 27.832062455587447
505, 44.16566958479325
506, 57.95331046806314
507, 71.52450005692276
508, 87.82269981349646
509, 108.85205895066383
510, 138.53653976322335
511, 173.58636044164246
512, 203.81249417602703
513, 228.36299223830179
514, 246.47216212806143
515, 258.75003513278716
516, 270.52178937396434
517, 282.08389836850756
518, 282.5114190559136
519, 268.8196555191146
520, 256.0376106784536
521, 251.26088052237515
522, 245.9457513801442
523, 233.95686760228045
524, 221.61615145776886
525, 216.01613183400877
526, 207.07294162491075
527, 177.5647268070975
528, 138.20686169820215
529, 116.7690495270972
530, 110.3059745648161
531, 102.80973342951734
532, 93.01810575313243
533, 82.35096820711783
534, 70.58397708182451
535, 53.67700721649271
536, 31.268541285561696
537, 16.31797094479839
538, 10.7562952011574
539, 13.052114969383638
540, 22.903067304595652
541, 32.46241343653037
542, 36.9029913618574
543, 35.228652641244935
544, 26.335248094503186
545, 13.970745449300466
546, 4.2280972803805525
547, 0.3568171019314832
548, 8.321865909855887
549, 24.031345000120837
550, 29.731402392261543
551, 26.070199926660507
552, 22.372288578266534
553, 19.780258177689575
554, 17.906285229811374
555, 17.04990246418174
556, 21.35484536277204
557, 31.252049232218496
558, 32.66920322191504
559, 20.519181065395514
560, 10.975653853510039
561, 12.69372995254139
562, 17.410927907631276
563, 18.912907762424084
564, 19.151817432095186
565, 20.232937415308925
566, 19.127813317103346
567, 11.233918223173987
568, 0.9350079422042654
569, -2.4321973664505094
570, -1.346091310658494
571, -2.5835485247398537
572, -5.06646356559736
573, -2.780447990209268
574, 3.2869434275994536
575, 3.5808194108738007
576, -2.4890699801107985
577, -8.605351634420913
578, -13.65647889236402
579, -14.00001679720799
580, -8.584141299625117
581, 1.4767258383214994
582, 16.239200902104812
583, 29.25188790083166
584, 37.2654484608604
585, 38.85903296783749
586, 33.08731740510939
587, 22.352084063977372
588, 8.808799726193683
589, -2.5934521531555674
590, -6.068044567178504
591, -3.3457933742333807
592, 3.5868646098301724
593, 14.78125035401058
594, 28.5835317517342
595, 40.71181431160471
596, 39.56816107946315
597, 28.387728011371337
598, 20.9570208157827
599, 17.423826190203272
600, 12.898764323002524
601, 7.541660773237027
602, 6.036958801555784
603, 8.021147516997644
604, 3.9894356134993814
605, -6.387247673848378
606, -8.234695271479268
607, 2.0783557233799
608, 13.34092763305398
609, 21.090353214450488
610, 30.00354570439322
611, 42.03595498104187
612, 48.15501235661395
613, 43.26252840337611
614, 34.57503124510754
615, 27.265016630762375
616, 18.069448634844548
617, 4.018684426543587
618, -3.260721283993007
619, 8.553491118700094
620, 27.314116989793774
621, 34.800065539093794
622, 32.89531761464286
623, 25.275245276505075
624, 14.301078287315931
625, 5.017723643968111
626, 0.6003039190320578
627, 7.300083938473563
628, 21.587581459931243
629, 30.936972116736115
630, 34.65186921179361
631, 33.81831879921401
632, 29.459332253439925
633, 25.985780797684356
634, 23.45352017042819
635, 18.724967815806167
636, 11.987195645818701
637, 8.442186196180046
638, 9.893804432973639
639, 14.641641961385858
640, 21.99771536604021
641, 26.261291153050024
642, 26.04841528467591
643, 25.63011956999003
644, 26.126894014338404
645, 20.12756395483484
646, 5.159205370248856
647, -2.3425708044010207
648, 4.177886738200641
649, 15.568932814866002
650, 25.97474020297318
651, 31.931976481660286
652, 31.234223292062097
653, 26.429586752511113
654, 19.42707132056421
655, 16.160761451169265
656, 21.797921835045145
657, 30.864753261545047
658, 37.78393000776441
659, 37.06407843185775
660, 22.199335729444556
661, 2.664963684471104
662, -8.344791599877908
663, -9.622562232439805
664, 2.1867039816208944
665, 20.94924678305233
666, 33.49271275955675
667, 40.53633976299898
668, 43.98197844665424
669, 43.87743365008737
670, 40.21481003691542
671, 36.06002467010467
672, 38.97706412087837
673, 45.52660140271678
674, 45.33087353773976
675, 39.898272994432546
676, 35.59328169650507
677, 30.984619958508574
678, 19.835306165240354
679, 4.680562398491475
680, -2.8570880918209696
681, -4.0036602345278425
682, -4.9305362388529375
683, -4.898295100984797
684, 2.579073391314523
685, 16.2740740428535
686, 22.7114891421445
687, 22.527890304294033
688, 28.146073190064044
689, 40.21885958733719
690, 52.24503591011967
691, 62.938029913477294
692, 70.69367623464723
693, 74.99231563351827
694, 74.20184736396118
695, 68.45744644642059
696, 60.886490828393335
697, 51.755024789692925
698, 38.35909514882928
699, 20.97018978287315
700, 6.512928211329154
701, -2.4354348359295273
702, -3.3842477996017806
703, 3.9083893848110165
704, 15.913534608100008
705, 30.53213711652711
706, 41.230996559676214
707, 47.27261558913233
708, 58.43171216563678
709, 75.91839527642401
710, 84.4953113670972
711, 80.52151196460932
712, 70.30044478038167
713, 56.227991625078175
714, 45.55601715635635
715, 40.52844094946704
716, 42.83195885661212
717, 52.20411800624743
718, 59.037400468510214
719, 60.35611272694791
720, 55.16040933763202
721, 43.58793610973407
722, 31.411550373551336
723, 20.41641383257388
724, 10.68682123124222
725, 3.664978102578516
726, 3.212825145785928
727, 10.252027544775046
728, 18.637161248987923
729, 26.08745163945855
730, 26.359705790148837
731, 18.196374365450993
732, 9.888346981597806
733, 4.091622701364031
734, 3.022761778465565
735, 6.827452084170773
736, 11.773690538276242
737, 16.539335705127087
738, 17.422048789044993
739, 13.665426148168535
740, 8.591769263799051
741, 3.3422401633263235
742, 0.24399035618421294
743, -0.24168939503510956
744, -0.05206922864067565
745, 0.10400954023634768
746, -2.0308594009695753
747, -6.615850238799339
748, -8.568915304721486
749, -6.890722883935041
750, -2.4028383405848217
751, 4.813890122385828
752, 12.56957155764735
753, 19.89299007128011
754, 23.471915837435517
755, 23.329562796477376
756, 24.14676737539071
757, 26.19895361660133
758, 25.678493595443342
759, 22.01191112585434
760, 15.737117421499079
761, 7.452006301834217
762, -0.10151215639643851
763, -5.418873652851062
764, -3.5688019297526807
765, 5.101234989257364
766, 15.186664367683306
767, 24.722079686184543
768, 28.481144516399127
769, 26.99663198484177
770, 24.441249520350766
771, 21.420846334185626
772, 18.63478733209854
773, 17.33883020459325
774, 21.275655188275778
775, 26.134408478273826
776, 18.944038792232732
777, 5.141165087469062
778, 0.6327284509018227
779, 2.269300318921978
780, 1.0088716579080028
781, 1.329101040580099
782, 13.486342253348994
783, 27.17352934566543
784, 23.165448855882005
785, 10.687249556094457
786, 5.40787418699756
787, 5.889409971766099
788, 9.034472071816026
789, 19.063314034253835
790, 42.01826440337891
791, 58.38405909129051
792, 47.0515711903347
793, 28.100688728367686
794, 20.09675428165542
795, 14.94293239275612
796, 6.284546248248034
797, 2.7897391174258246
798, 9.363755449861856
799, 12.216490932802344
800, 3.9081927687557254
801, 2.5089330209102627
802, 16.032175515579638
803, 25.500182420361853
804, 23.716078411722947
805, 26.665872205555615
806, 39.285043724251864
807, 48.604734105879515
808, 51.07929999092016
809, 52.144851173304005
810, 52.74953566334034
811, 48.864832516790784
812, 39.59714410997117
813, 24.9307053608768
814, 7.0513735429435656
815, -2.324264952322892
816, -3.5139288349594153
817, -4.610076982168721
818, -4.433818665030685
819, 5.062704000846679
820, 19.597077478897063
821, 22.937188579183385
822, 20.465051504211715
823, 28.034180356389015
824, 38.455336609612914
825, 35.77034907686675
826, 24.32481681775903
827, 12.014144049957395
828, 1.0522183143523307
829, -5.670785057301828
830, -3.8945368318504734
831, 11.715672076901228
832, 28.859632786968405
833, 37.11801105958148
834, 42.421247928008825
835, 48.46343085381591
836, 47.395621924968964
837, 35.68393348389418
838, 26.520275873926494
839, 24.969721977874315
840, 24.3789236424891
841, 22.70105052157328
842, 21.64618228360723
843, 21.272841523143143
844, 18.676499229682804
845, 13.680334436091698
846, 8.598985997721002
847, 5.630858142665147
848, 8.657130004994315
849, 14.647308707834782
850, 13.922074069063001
851, 10.314582975255917
852, 15.569901507173654
853, 24.100451081809297
854, 23.673976665354076
855, 18.82606491319052
856, 16.958935994156946
857, 13.147097364051206
858, 1.6879626759348412
859, -1.7202243606586762
860, 15.371365271191507
861, 27.448288738534075
862, 18.876007999218018
863, 8.72802307423808
864, 5.638986639539553
865, 1.218897654260445
866, -5.7836934506979105
867, 1.849720906293669
868, 25.7723318322885
869, 36.77293441147026
870, 32.1252850888186
871, 27.73190284157863
872, 23.672373034080465
873, 11.729531530072563
874, -3.0503059554807805
875, -4.768371151719748
876, 2.7305622675087307
877, 10.702270792976833
878, 20.75997692399301
879, 36.17062954291714
880, 45.66601291585607
881, 37.166964134121145
882, 22.265988799831575
883, 9.750818556646891
884, 1.6968538676567277
885, -0.4310468205123925
886, 6.58282729940629
887, 22.632713628426245
888, 30.60711884992088
889, 27.164265338981068
890, 23.2037781555498
891, 20.553984252770988
892, 17.525117953308836
893, 15.415187688665583
894, 19.46290386617943
895, 25.18321371370689
896, 20.572237477313138
897, 11.980965002939683
898, 11.298893021497861
899, 10.92258567926865
900, 1.5621310959029415
901, -5.920932016905681
902, -3.8519017046098725
903, 0.5650246294021599
904, 3.9011773811391777
905, 10.255727654579914
906, 20.0734541046927
907, 21.318275142548146
908, 12.804304061458424
909, 7.46613640294072
910, 6.352626106273419
911, 4.156517559570602
912, 1.6424609527821303
913, 2.880142053857071
914, 4.816876434595088
915, 0.4399301157275204
916, -3.062571980204666
917, 3.632791764218382
918, 10.90937984733796
919, 9.865284278701893
920, 16.254747868232926
921, 37.531994680697835
922, 45.96387241371394
923, 33.65743069061705
924, 26.804332528874056
925, 29.441975951365293
926, 26.27056015658718
927, 18.308175640500167
928, 18.711144602310014
929, 22.97319994873328
930, 16.81330132986568
931, 9.440691647132098
932, 17.941115326980025
933, 30.289929598120352
934, 34.69864032299438
935, 28.265205678128495
936, 9.815829817212034
937, -3.4553653242910514
938, -4.673943418165663
939, 5.176682248547877
940, 24.74045591324625
941, 40.44913732876944
942, 48.69917922222294
943, 44.29369132935199
944, 33.034110505212084
945, 30.33951948262029
946, 30.484505177446863
947, 23.444579879738512
948, 20.235575339473826
949, 31.138062272275647
950, 37.22319232754808
951, 28.390282820918628
952, 22.259289134443407
953, 23.66710428076044
954, 17.97649502761783
955, 6.343214964208755
956, 11.788437475207274
957, 27.120393389978744
958, 23.382456207659743
959, 8.772899704833435
960, 2.47444675099473
961, 3.15521803479146
962, 8.533149445964455
963, 15.176053472279591
964, 21.05065379049006
965, 27.38910217462194
966, 33.32859089868134
967, 25.654142908905214
968, 5.529737091231709
969, -3.617637875297305
970, -3.314387701100486
971, -7.6071972162976635
972, -9.9348881375156
973, 4.520272168831752
974, 21.295109821710867
975, 23.03478167122671
976, 22.4179187163802
977, 27.16652074540434
978, 31.314230489686224
979, 32.55598948356533
980, 30.542038621190386
981, 26.094352309895385
982, 23.267916208103998
983, 22.02571466347058
984, 20.973259957467008
985, 21.20944180022275
986, 24.54645321944122
987, 23.85833617833805
988, 13.24728749180872
989, 2.6468800406230457
990, -2.7101279531793807
991, -2.840133123033638
992, 2.868453753042786
993, 17.724616134159533
994, 36.88770004338244
995, 44.28197959977729
996, 44.5398806744447
997, 48.54788861741258
998, 48.69816925867781
999, 37.06076880483147
1000, 22.89216711671952
1001, 11.405592997745089
1002, 2.2680097438010307
1003, -3.098094706309439
1004, 3.090637988255139
1005, 17.912124442080994
1006, 23.82250477480534
1007, 20.642869725674927
1008, 10.825782688601066
1009, 2.8094755985787287
1010, 5.594159815002513
1011, 14.112384622931359
1012, 24.304321469712477
1013, 29.564200059014183
1014, 28.853871604697815
1015, 28.408654464551546
1016, 30.445661316223777
1017, 38.70946360663879
1018, 45.8889306702481
1019, 38.643547552049085
1020, 25.167004484202607
1021, 13.338678685871173
1022, 7.520836045333908
1023, 9.27336699710986
1024, 12.675577218539956
1025, 14.898044947296512
1026, 9.820002173309376
1027, 1.0935958176717122
1028, 0.360018942372335
1029, 3.071792241180219
1030, 2.22271805582227
1031, 0.7286148459315882
1032, 0.5375546775753719
1033, -1.6276212533650778
1034, -6.104504127423297
1035, -5.791746318101332
1036, -0.47643249053339787
1037, 5.988914991064576
1038, 12.032814113432323
1039, 15.37406239175698
1040, 14.6463479490194
1041, 8.760991958920613
1042, 1.1957960760701098
1043, -6.150680905153877
1044, -11.356621328942538
1045, -14.823611617687448
1046, -18.98033936855859
1047, -21.26038632381824
1048, -14.86054037053782
1049, -6.371022775115989
1050, -3.1042673296121848
1051, -2.7282016278390984
1052, -3.5872646738509957
1053, 0.15827975038860131
1054, 8.38709843590118
1055, 11.03484976511686
1056, 6.6942450131318765
1057, -4.237727360591862
1058, -13.636353473162671
1059, -11.668018489428505
1060, -2.358258429403122
1061, 12.318564917634149
1062, 27.63384112637482
1063, 45.26283057267551
1064, 75.9563414132449
1065, 123.58489667607432
1066, 179.6756766879978
1067, 238.59346242082188
1068, 294.0330739026367
1069, 349.2342772305078
1070, 407.2474107349626
1071, 481.62452536428464
1072, 568.2740277894816
1073, 633.9759074865838
1074, 676.4870087327149
1075, 699.1898435930659
1076, 699.9100699672395
1077, 677.1915761097212
1078, 654.4318217410896
1079, 639.6648039878819
1080, 609.8723733997253
1081, 563.2660286279413
1082, 511.7608575604522
1083, 455.5906316756302
1084, 393.31152862445447
1085, 323.72835552166407
1086, 246.8221346013106
1087, 178.16689616520216
1088, 121.72765590025779
1089, 67.11612821205335
1090, 26.767717741802244
1091, 16.97757167680811
1092, 18.03961582710167
1093, 5.17857562709105
1094, -5.159517952152555
1095, -5.681304996322297
1096, -13.16871712061402
1097, -26.851189397712233
1098, -24.037551551069782
1099, -12.726849618319193
1100, -12.247154362536094
1101, -11.374190742519886
1102, -1.4122680006141763
1103, 0.8103582477231157
1104, -7.710002800264647
1105, -7.498017497256342
1106, -1.5865586641732534
1107, -6.010067294536157
1108, -8.068699274321943
1109, 7.640802623413947
1110, 17.062657594255597
1111, 9.556238049705598
1112, 0.09410806968980978
1113, -5.427123884729099
1114, 1.0068422418983118
1115, 8.793328069697736
1116, 0.16814410212077746
1117, -7.469826190706613
1118, -4.821664648793671
1119, -3.4206792514867175
1120, -2.405588214246791
1121, 15.203412401357468
1122, 33.65303591536508
1123, 20.244225622100316
1124, 1.7540374843705422
1125, -1.126665041996148
1126, 6.594851434615862
1127, 19.298821005402942
1128, 16.652219056121112
1129, 6.673287400182971
1130, 12.438702346498758
1131, 23.67702588997861
1132, 31.870421059259
1133, 42.661730222779966
1134, 53.72277148637693
1135, 41.602723910148484
1136, 20.959492184701503
1137, 32.349134963203255
1138, 50.62293401404156
1139, 52.31434809816426
1140, 52.989284717452165
1141, 56.53898387042955
1142, 51.91622719020643
1143, 42.46184956393358
1144, 39.51783018697677
1145, 32.49962621664395
1146, 12.565054856797246
1147, 0.2587138034976988
1148, 1.98778643481171
1149, 11.311331522553928
1150, 23.43214865551306
1151, 30.53740572302695
1152, 30.86676513655243
1153, 23.471985355892343
1154, 13.24136946878798
1155, 4.201707772088639
1156, 7.951531877968932
1157, 18.871263044995658
1158, 24.172935225207198
1159, 28.73988206489014
1160, 34.58664685141321
1161, 19.170877818653935
1162, -12.347425346814248
1163, -13.225802964033392
1164, 1.2285423425123554
1165, -0.13174630205639914
1166, 7.434431333412476
1167, 35.43271501877405
1168, 39.85725196729368
1169, 25.65970050869464
1170, 43.031717323159114
1171, 73.57733875309088
1172, 89.24713142001895
1173, 103.85504199107504
1174, 120.49667669148141
1175, 115.64828544593877
1176, 95.47858778057446
1177, 85.92390626347776
1178, 86.4800875771191
1179, 94.78320133225066
1180, 98.01828500967872
1181, 91.75724929938394
1182, 76.47648235130862
1183, 57.46940335181512
1184, 43.980045659866846
1185, 31.356076538878597
1186, 17.19339347449909
1187, 7.864704688220172
1188, 4.724793020758625
1189, 4.343502763037463
1190, 6.942354862625166
1191, 12.34002237923039
1192, 12.87761391648553
1193, 6.530030432787498
1194, 0.11602195796911019
1195, -3.3538817974300628
1196, -0.3164923702403257
1197, 0.24091858950112055
1198, -6.263256654210181
1199, 1.5157057919952877
1200, 21.77049734178388
1201, 26.24782135588532
1202, 24.4822738699678
1203, 30.536011860191934
1204, 36.58402863265337
1205, 40.27791350277016
1206, 47.10471225273932
1207, 53.034589318359394
1208, 48.64388575444127
1209, 34.22185502885782
1210, 12.257557741642358
1211, 2.3034147823894955
1212, 6.042625404677096
1213, 13.658856742746252
1214, 20.009501997840857
1215, 20.228932111932522
1216, 11.13006920511532
1217, -3.7917823611438735
1218, -4.751595758615736
1219, 0.9293967822884497
1220, -0.8365154443749816
1221, -5.112855737051973
1222, -8.785191474671251
1223, -6.911098803496429
1224, 2.8529927470830216
1225, 23.66801480888671
1226, 31.51240869674507
1227, 12.752034420856035
1228, 3.1587580361843948
1229, 6.794874439573505
1230, 7.904406174043629
1231, 10.275096020753267
1232, 17.89489556764306
1233, 19.06139630629798
1234, 14.84679821842667
1235, 24.6441041774616
1236, 34.62984431208349
1237, 24.523562932188042
1238, 11.093380514757996
1239, 2.623081378138295
1240, 4.522342527933006
1241, 15.020470954227108
1242, 29.038110701838832
1243, 41.03085841231973
1244, 48.286361503596595
1245, 52.13200092250372
1246, 55.77447323780132
1247, 65.05261552638592
1248, 57.5403253778079
1249, 24.02604591164959
1250, 6.545667116596405
1251, 10.016962928754879
1252, 23.429921374555988
1253, 49.42056106759071
1254, 86.96188271381152
1255, 96.5952566031682
1256, 79.45251403395548
1257, 65.47616643089486
1258, 54.13006118219823
1259, 44.07799576344598
1260, 41.942802941960394
1261, 48.4845675062229
1262, 60.4470458011765
1263, 69.73637853235164
1264, 69.17778840985306
1265, 62.18984821046479
1266, 49.440432557485224
1267, 29.781549593681916
1268, 14.374523409106473
1269, 15.459123979167998
1270, 26.1375634068188
1271, 40.338692821486006
1272, 50.305788286118286
1273, 54.548061409732895
1274, 52.06028393192196
1275, 41.39786553547924
1276, 27.001031060063838
1277, 25.14137730331163
1278, 31.38326458851327
1279, 39.151084954281146
1280, 38.68890909768788
1281, 28.953777319610936
1282, 16.268600706610187
1283, 7.544250313120642
1284, 9.591868993598155
1285, 19.774769540657076
1286, 30.17275626030846
1287, 18.65016537657334
1288, -0.33578900603049533
1289, -11.353071354284907
1290, -1.3437325132823617
1291, 25.537385465092257
1292, 45.03882389301509
1293, 50.19796519653005
1294, 37.833864809323586
1295, 18.567490789332282
1296, 4.448642494282353
1297, 18.47053048855014
1298, 30.109372577877593
1299, 22.04100756183209
1300, 20.64353038626348
1301, 23.086771354504094
1302, 13.281922194582194
1303, 8.301369643799717
1304, 14.37331982914202
1305, 10.16529383111515
1306, 2.837698805502555
1307, 9.81173755835755
1308, 15.659031396323599
1309, 12.485503691769736
1310, -3.453219569645057
1311, -16.073522299905676
1312, -6.0451833272099975
1313, 0.5699415232115825
1314, -0.6214881220985262
1315, 6.994866892295931
1316, 10.224223308180626
1317, -2.563010112651
1318, -0.9705873392992999
1319, 14.015064147848307
1320, 17.267215367624658
1321, 13.006664706445804
1322, 6.592728900100155
1323, 8.211935274540792
1324, 14.197693531327786
1325, 13.739231803700932
1326, 13.225186301768645
1327, 14.023782759726714
1328, 6.220788396561716
1329, -0.32866449059770275
1330, 7.999763016165957
1331, 6.997686549074388
1332, -4.855336948154104
1333, -4.27086525099719
1334, 3.854141270026048
1335, 13.350174799280467
1336, 19.23573737928973
1337, 16.779970097954674
1338, -1.3446790195201856
1339, -5.798059261920116
1340, 14.42326341345165
1341, 29.941175048201217
1342, 34.01445204140555
1343, 23.957218974802913
1344, 10.084982965202585
1345, 0.6822797858991407
1346, 10.685628044226632
1347, 17.910331714491463
1348, 5.725025636846908
1349, 1.9373937201299896
1350, 10.574381258530707
1351, 26.217659799557396
1352, 39.749058442150385
1353, 43.38309230522361
1354, 22.339659270834545
1355, 0.5068226327654202
1356, 6.61782591258077
1357, 15.035016959512745
1358, 17.097042873241435
1359, 10.384465164608855
1360, 3.910620915214281
1361, 5.064353423569628
1362, 20.141835598665807
1363, 34.602129817108676
1364, 27.13749859341931
1365, 15.80120007736241
1366, 8.903765710522634
1367, 12.609035133367456
1368, 23.70361971852833
1369, 37.92336873186741
1370, 40.03201419619802
1371, 37.38314366649388
1372, 46.40187638081886
1373, 51.52079251319287
1374, 48.68596339238741
1375, 45.60682110635628
1376, 42.12321679049114
1377, 38.42557807406797
1378, 40.64306785745919
1379, 41.28347495704804
1380, 26.350723422181318
1381, 17.05622807679947
1382, 18.71824128864091
1383, 20.11524899418737
1384, 18.332273748259013
1385, 12.202187173960738
1386, 4.6421227287639795
1387, 4.710942077693517
1388, 24.065491704830947
1389, 38.35454275270888
1390, 39.07111032802288
1391, 27.71041840272028
1392, 20.930573694111217
1393, 28.404020025936916
1394, 38.72649208650455
1395, 40.97296867482601
1396, 24.05678373505316
1397, 6.905762595527676
1398, -2.8547529366345543
1399, -1.4337674330035952
1400, 6.846467472906056
1401, 15.745620256580764
1402, 8.074919584510212
1403, 1.9065349021525435
1404, 16.211768790133874
1405, 26.30908973221142
1406, 26.640575456505076
1407, 18.30295783298368
1408, 11.0976712923175
1409, 10.670760059368945
1410, 21.91076866098706
1411, 28.50557660490881
1412, 20.52522646720149
1413, 11.997737456776349
1414, 8.733564899150565
1415, 14.195194038805539
1416, 14.498745356556583
1417, 6.75396876057232
1418, -5.906878368568755
1419, -5.190943363540441
1420, 11.220427112429434
1421, 18.74209655732568
1422, 20.63877133477922
1423, 20.24603822446352
1424, 10.291523969452214
1425, 4.80947049679412
1426, 22.161892196173426
1427, 26.15726582762511
1428, 17.42954393580601
1429, 19.786118716866554
1430, 22.232089341076858
1431, 23.58275148495875
1432, 38.31861164168686
1433, 40.133931477584724
1434, 15.43269231651027
1435, -1.312552888973073
1436, -2.7143158670654657
1437, 11.692253989244364
1438, 23.102349171058336
1439, 27.413797172178988
1440, 25.83790400127839
1441, 22.159119850513093
1442, 16.057976213738357
1443, 3.1746183770247853
1444, -4.522404737926649
1445, -2.3091931823302048
1446, 5.922662010453109
1447, 18.47125574404845
1448, 30.377182727567174
1449, 19.146901946330217
1450, 3.939525475869914
1451, 11.138956025665948
1452, 18.797211513080356
1453, 24.242860964136185
1454, 31.071473307785823
1455, 19.03537552924854
1456, -3.5677950781484924
1457, 0.9507228948147031
1458, 12.706607784362859
1459, 20.97418053821957
1460, 26.711827857942353
1461, 28.629340746936236
1462, 28.16854587641501
1463, 36.7125695026308
1464, 39.7833856152929
1465, 25.681441585940888
1466, 17.334530275454085
1467, 25.52258239198045
1468, 53.1100547062083
1469, 44.96412004052877
1470, 12.82426097489838
1471, 0.8965807140281186
1472, 0.6115767615207233
1473, 12.301987999738571
1474, 42.27634193195229
1475, 51.54548316457601
1476, 37.82702129934785
1477, 42.91204304129815
1478, 45.539769702751414
1479, 34.41934787788466
1480, 16.24437801287627
1481, 8.189818217215134
1482, 17.33143710045283
1483, 18.959189043910897
1484, 15.181875433794175
1485, 10.116102896587563
1486, 1.9454040549338742
1487, 3.2501152675888534
1488, 23.29928054754737
1489, 27.524494114533468
1490, 16.459112514220237
1491, 1.3915222678089094
1492, -4.755746716243493
1493, -4.135109792651178
1494, -3.8822854641086906
1495, -1.5798522494170584
1496, 4.397279389243863
1497, 15.225221783500388
1498, 27.262889849522367
1499, 32.031560907585686
1500, 15.303645544379833
1501, 4.041048008064308
1502, 6.339033693230704
1503, 14.200933067816663
1504, 16.691118551269824
1505, 12.009588412943458
1506, 8.280182564151573
1507, 17.488146050576802
1508, 35.29469163175406
1509, 31.614945209405505
1510, 14.133846691307099
1511, -4.590972743788257
1512, -0.8757425046718481
1513, 11.111065040446192
1514, 22.77453223415239
1515, 37.15904885507928
1516, 47.115295434513996
1517, 48.73136017249726
1518, 44.61650223886295
1519, 29.357161603869713
1520, 4.942070509540031
1521, -5.706070036587903
1522, 1.4985334905450145
1523, 20.454633235661277
1524, 16.398223117203315
1525, 3.5953963459655824
1526, -5.2747650393514505
1527, -10.627220311594215
1528, -0.13116458069373493
1529, 24.822581036633096
1530, 15.179578413747436
1531, 0.9372867019252453
1532, 4.643967586061535
1533, 14.558528336186328
1534, 21.33195169785688
1535, 18.590600012350933
1536, 3.3924327750522707
1537, -3.648393940935648
1538, 6.164732873833145
1539, 13.029034972549198
1540, 13.492290441001956
1541, 10.791328070679242
1542, 20.176376437677163
1543, 25.18729813219295
1544, 17.58615960883492
1545, 6.8845643347563055
1546, -2.6955996152502166
1547, -5.934621107590601
1548, 7.792337122954677
1549, 14.47633316003919
1550, 7.649806164944607
1551, 7.000327187075982
1552, 0.4907344400508009
1553, -10.813834898100481
1554, -9.18018330599898
1555, -8.334043202979728
1556, -9.738028787938788
1557, -2.7700078728221342
1558, 4.659379624633402
1559, 7.0301570191518294
1560, -0.5499724381760416
1561, -6.935084008193257
1562, -8.146071260307622
1563, -2.45693130619793
1564, 16.97571441399998
1565, 47.32960155047033
1566, 81.94025222902292
1567, 118.00224406008863
1568, 146.70368116588247
1569, 158.99284832588864
1570, 173.53615563287417
1571, 208.9460640974836
1572, 273.5113616971795
1573, 327.9906842169054
1574, 370.4720365208036
1575, 406.3730084579879
1576, 444.86467746511835
1577, 486.08192418752174
1578, 520.1310664089783
1579, 515.3426077181069
1580, 488.22927654243097
1581, 459.6561108693295
1582, 457.6333783908992
1583, 442.7035290489672
1584, 404.340629692084
1585, 355.110177916868
1586, 288.6051544099869
1587, 225.80599616704137
1588, 198.37569740467939
1589, 151.49251632290577
1590, 94.23937037408325
1591, 52.690025644384605
1592, 25.457417180478956
1593, 18.585869763491587
1594, 30.61486194740985
1595, 17.413585363528227
1596, -3.884529879481647
1597, -18.440165073681897
1598, -15.48269390872781
1599, -9.265838951381625
1600, -5.88035479083203
1601, -4.309709308997867
1602, -9.647237412993263
1603, -14.804940985998314
1604, -6.381004845782513
1605, 1.5209250620725925
1606, 4.140577748919327
1607, 0.6359578266806238
1608, 0.19751852524666447
1609, 1.8036236142309008
1610, 6.375252942453471
1611, 22.744440191312947
1612, 24.763795545106746
1613, 10.919892615808067
1614, 11.843014450568262
1615, 12.965904957030148
1616, 16.611502984539243
1617, 33.482925073264596
1618, 39.250684499423414
1619, 37.14671280273194
1620, 36.334371587587725
1621, 33.844840196597715
1622, 38.767097590516755
1623, 51.314711561340346
1624, 51.315106384078035
1625, 48.838074978943155
1626, 45.99434014169367
1627, 35.794892099913
1628, 10.398437944671514
1629, -13.446865468638748
1630, -13.9385616550328
1631, -0.11482375927778321
1632, 16.41895799708186
1633, 22.61248303828438
1634, 4.661058417786421
1635, -0.37434114921359196
1636, 13.022643625723731
1637, 17.754615127450734
1638, 11.017902756919739
1639, 0.2661162635132541
1640, -2.9110283506703354
1641, 8.226827109911596
1642, 20.692853865218126
1643, 22.993223352366044
1644, 12.261579673743881
1645, 0.8326276140262507
1646, -4.84356856644672
1647, -3.7466218121973043
1648, 0.30293615888706427
1649, 7.34934188952036
1650, 14.392487123642695
##END=



