##NAMES=
##LOCALITY=
##RRUFFID=
##CHEMISTRY=
320, 20.30437034730039
321, -3.791936442930819
322, -22.084276932974717
323, -23.550407253081175
324, -10.32439650023025
325, 15.455884923359918
326, 45.828872651016354
327, 46.35639880164672
328, 17.411445493029532
329, -4.322978230741683
330, -10.213186046497867
331, -8.989229715937654
332, -4.992318907528897
333, 2.327364365694848
334, 13.656948102406204
335, 23.996609171766067
336, 19.56704327678017
337, 3.051046906030024
338, -3.6942013804955423
339, 1.717141968480064
340, 7.5392601742705665
341, 8.92156137355596
342, 10.389940040809961
343, 15.081730093490478
344, 25.779078453399052
345, 45.257023134638985
346, 70.80806898227456
347, 91.46808551308368
348, 105.42302064501473
349, 106.07190411335341
350, 92.12697448475592
351, 76.61039738384443
352, 66.23184594526265
353, 60.206849436429366
354, 57.64722784338937
355, 59.161180738927214
356, 66.20962597933067
357, 75.86129809159866
358, 72.98147161977249
359, 56.07574834985098
360, 33.022748465105906
361, 6.439398802711366
362, -7.602216655409393
363, -0.8296461667041513
364, 17.59178722796878
365, 36.01886867530084
366, 53.30229828540723
367, 71.37053067274519
368, 88.2027894648727
369, 91.26973646311853
370, 79.83178316782232
371, 74.24059211923304
372, 81.34801751534724
373, 85.15334692759097
374, 74.62814596083626
375, 58.27579940250871
376, 48.60089359739413
377, 43.990228534169546
378, 39.39709915223102
379, 35.055064427164325
380, 34.34381246679641
381, 37.48757293409926
382, 39.08171274793949
383, 37.29352333751376
384, 35.421514539806594
385, 35.699084491900976
386, 32.92363692703111
387, 19.74538430006669
388, 1.3308045773101185
389, -7.792968114152245
390, -9.395220354620506
391, -12.912508118389269
392, -19.744963969207674
393, -25.676813152185787
394, -29.76386903626917
395, -30.91298197854485
396, -28.340431780410654
397, -22.131722359928062
398, -12.073392375197727
399, -0.2812961845274913
400, 7.08934782353117
401, 9.592425063459814
402, 3.525514857863527
403, -9.271648162855854
404, -1.8592640635642965
405, 33.08273306832689
406, 82.49603976806429
407, 143.43095492606062
408, 205.77398284898572
409, 267.8602949888809
410, 324.42450943886706
411, 366.07134285212305
412, 399.75562106871894
413, 449.07481388840733
414, 513.2435002464408
415, 575.2040486549813
416, 631.8051765640912
417, 681.4207431892801
418, 723.5192077521124
419, 759.6482673550072
420, 790.7702106880279
421, 817.8082163539975
422, 841.8721289440964
423, 859.5569920424896
424, 863.2940283634243
425, 852.8514909280593
426, 828.4112513499895
427, 791.335271248855
428, 752.2843417185177
429, 713.2179538491318
430, 667.3874886224248
431, 612.2034402061436
432, 554.8589567832651
433, 500.4084579328555
434, 445.4943307890935
435, 385.654259241257
436, 321.8517057044128
437, 256.4265195157677
438, 191.29084584186967
439, 134.0893438454741
440, 86.34627660314163
441, 62.20663818240246
442, 60.032950454777165
443, 71.34916175934995
444, 93.98811970761199
445, 112.97887056580021
446, 123.0264712496346
447, 134.79068582255786
448, 161.5664642337788
449, 194.78208055849427
450, 215.62667537737252
451, 225.30862697600332
452, 230.85837280322266
453, 231.94583042614613
454, 221.70100547545462
455, 200.3365245217792
456, 190.0479259916774
457, 197.81236328042542
458, 204.55881336243147
459, 199.58616590307156
460, 189.04455635544218
461, 178.98582613109465
462, 166.5169190067818
463, 146.64555847251904
464, 122.33294681272855
465, 102.38419870282632
466, 84.75088324241733
467, 56.630383218864154
468, 18.08359675885822
469, -12.77817679547934
470, -34.85891375108531
471, -44.39803496108016
472, -40.05617258834445
473, -30.48566906794167
474, -20.734423293657528
475, -14.434002226510529
476, -16.260796635329825
477, -20.587696618359587
478, -16.693054782513173
479, -4.166343694530042
480, 17.44590022619832
481, 46.728384822632506
482, 74.48197486858771
483, 99.1290510150402
484, 118.1983661448985
485, 131.52086868191054
486, 148.10501599466625
487, 171.3210614916743
488, 184.48752733639867
489, 176.99875069388236
490, 154.2873279648329
491, 122.11036523554048
492, 85.60593019808857
493, 53.68757064141755
494, 27.554170450299353
495, 10.05383120289298
496, 1.1792599660229826
497, -5.095418282424362
498, -10.226649293795163
499, -16.378882736705236
500, -23.395963357647815
501, -16.5814773195807
502, 9.118172328817309
503, 36.22270244290121
504, 57.50727965498936
505, 81.79246051788141
506, 116.71246991695989
507, 156.76158817900978
508, 205.33190660240143
509, 261.2820054349186
510, 322.3438989702963
511, 383.3830152352821
512, 429.1669739072495
513, 461.20423011074945
514, 491.2609866641387
515, 522.0477803901158
516, 562.8364519650304
517, 614.7590377293991
518, 667.1955884490553
519, 716.4698269707851
520, 752.8459255574662
521, 771.7591493881773
522, 783.5670239801357
523, 795.7074276548419
524, 799.8222348705758
525, 786.5345117887091
526, 760.8702718159802
527, 731.4213828729899
528, 699.5421208038133
529, 668.2846457731357
530, 641.0769617669548
531, 630.1434719302051
532, 633.973276249515
533, 637.517218771407
534, 639.1936906504025
535, 646.006678615684
536, 658.8807774644893
537, 665.6239727818429
538, 662.22223044168
539, 658.4938760321384
540, 659.4425291801699
541, 669.4881442205151
542, 691.8952023561087
543, 720.9996946467527
544, 750.5235298151065
545, 768.1909532845348
546, 754.0561763098303
547, 715.8556289653734
548, 672.1743069146996
549, 628.0180877829562
550, 597.3778328718627
551, 578.1411645399176
552, 555.1539693181758
553, 525.4359019403837
554, 481.7459071087669
555, 424.39647998095734
556, 372.32334390348205
557, 330.75539225840294
558, 299.40790355489116
559, 277.85106666367756
560, 251.87873603089156
561, 213.89509203843045
562, 172.4611124892399
563, 134.0156410547961
564, 99.58622977875984
565, 80.25527997185327
566, 72.2620669747239
567, 64.80585445541692
568, 52.294797171382925
569, 23.126456143181713
570, -10.09480845217513
571, -20.553557758966235
572, -13.701740573348616
573, -12.864573884161473
574, -17.373396051480995
575, -11.816147349825314
576, 3.8219613276291966
577, 9.060771472496981
578, 0.6255653421430907
579, -2.1041048271395084
580, 5.05426940271218
581, 3.41021816274133
582, -13.525789144311148
583, -23.312003005415136
584, -15.138510066070012
585, -1.5188275359278123
586, 10.024249266345578
587, 19.392995333666022
588, 26.36324977508093
589, 26.542384653512727
590, 14.563222484987818
591, -0.4992415105425607
592, -3.964535293345307
593, 0.8564054121698064
594, 7.666518854517108
595, 13.912400320816687
596, 13.201417125535954
597, 5.92972977460613
598, -5.21156991997168
599, -17.630814246791033
600, -19.322451354805253
601, -10.337615825058037
602, 0.9049038885423215
603, 12.36250885355139
604, 11.655191781823305
605, -2.2274841487960657
606, -9.4916179463753
607, -5.8628648469939435
608, -2.907263993250126
609, -4.420171165677857
610, -4.561298697949496
611, -0.7720276218105937
612, -0.6164764129007381
613, -8.511342550764766
614, -11.151892485708686
615, 1.2959924805854826
616, 16.64551309335593
617, 22.536462742027197
618, 21.85295035412173
619, 17.949097081147556
620, 12.47381152978005
621, 7.825034349169982
622, 3.9394085049389105
623, 1.0606442731263996
624, 3.323145350773757
625, 20.71883643157662
626, 44.70970490290665
627, 52.31145572428477
628, 48.80547016249329
629, 55.56018533744782
630, 68.40932660954377
631, 64.2533380233881
632, 47.59150629831629
633, 51.74330255240102
634, 76.06847432556651
635, 90.5497901470867
636, 91.97422501237861
637, 93.21173090061393
638, 96.6631537075782
639, 100.46367738646359
640, 104.247778053802
641, 109.0747375151268
642, 115.11969131531941
643, 120.30503494332879
644, 123.58317141145426
645, 117.81970492272649
646, 100.48869812814291
647, 82.44559507184977
648, 68.66391287229226
649, 51.995631294010764
650, 28.616614567536544
651, 7.8311097726150365
652, -3.5961572367709778
653, -3.8838774862138052
654, 9.114698024010067
655, 26.45202199736468
656, 38.286239995312826
657, 42.38277213936226
658, 36.464775718154215
659, 28.046321353101575
660, 26.029903553516306
661, 29.015429720682732
662, 35.073719006891224
663, 41.215400613681595
664, 42.8138816910141
665, 35.688665230351035
666, 12.583273563358034
667, -12.638420674641566
668, -13.561219121173963
669, -0.2480491337669264
670, 4.916876783519456
671, 3.087859421219491
672, -0.5167073563575286
673, -4.73492485662382
674, -6.444484343503973
675, -3.169045289231235
676, 12.83050472019977
677, 35.60423887526258
678, 42.518962584183555
679, 35.02021541578597
680, 25.097709888190366
681, 14.372920493432503
682, 4.904425964362872
683, -0.30541126965135845
684, 8.33627196275711
685, 27.964487271069174
686, 34.051971331115965
687, 26.972530663623274
688, 24.977898589494544
689, 28.940843281346588
690, 28.81842452207684
691, 24.980002644803335
692, 29.4705918492582
693, 42.062619536859984
694, 47.517291603644935
695, 44.86037701747637
696, 47.24963827850479
697, 55.71796597350203
698, 58.223024221904325
699, 52.60717362470905
700, 41.929957017705874
701, 28.500166720534253
702, 26.658227749975595
703, 37.78022381275969
704, 43.31819689680833
705, 39.26314356431885
706, 31.000609023201832
707, 20.10705362897943
708, 8.643246374059345
709, 0.30024187062417695
710, 19.191900585353324
711, 67.78794264952057
712, 96.14961930523214
713, 92.51727061388374
714, 85.25529121483578
715, 82.05096512989849
716, 76.13370583823325
717, 65.8671419569273
718, 55.9349996054043
719, 47.0911962567493
720, 30.86909843540616
721, 6.034165426327036
722, -9.196574155865164
723, -10.952676405295279
724, 0.24996318346529733
725, 23.70201082056019
726, 36.604691927404474
727, 33.003247714490044
728, 27.238044850001643
729, 23.535490150939495
730, 19.328623942018112
731, 13.816519492320822
732, 6.812110239237427
733, -1.2772554012876753
734, -4.845076208725914
735, -2.718246308871585
736, 3.191024754479713
737, 11.989692200668742
738, 17.38260281389512
739, 17.453936613300357
740, 10.869565016055276
741, -1.7000322220010275
742, -9.413589689774199
743, -9.672085592500935
744, 1.7173508893720282
745, 24.914549743320094
746, 39.99614528588745
747, 42.5718155017903
748, 37.24772348253509
749, 26.437563935555772
750, 21.23822060747625
751, 23.633706742930826
752, 29.55039904833575
753, 36.06792851952105
754, 28.173633726467415
755, 6.747331198103893
756, -1.0509418652377462
757, 7.9768503643581425
758, 28.45653832942162
759, 55.039775223171546
760, 67.64550868198558
761, 64.58878875347318
762, 54.25046184197981
763, 42.034910615288936
764, 48.472177038207974
765, 71.44513929425102
766, 88.8046366870899
767, 97.55097206168739
768, 96.46185409712825
769, 88.7458861166242
770, 87.04142704237665
771, 88.40857360831296
772, 78.5234976895581
773, 57.89671993512184
774, 31.895106328519887
775, 5.494097986168526
776, -7.764668282204639
777, -6.044124786336397
778, 16.923790641645155
779, 51.32309662159696
780, 72.49642253797538
781, 77.9147062018128
782, 64.38365044757393
783, 41.42528451291446
784, 26.680728905987507
785, 19.858273482276672
786, 21.853878354269
787, 32.67769454257996
788, 49.89533054294634
789, 66.07297124605157
790, 71.92052472495789
791, 72.93940185384145
792, 75.1061309834522
793, 75.29125028834869
794, 70.60856959864304
795, 64.83015284110888
796, 61.00676473481144
797, 65.69051923669213
798, 83.02986511011068
799, 94.0028365595972
800, 87.81555958530589
801, 77.66656887091949
802, 70.05796175801879
803, 61.30471155570103
804, 50.42539134842809
805, 48.33915804730941
806, 57.58351198446371
807, 58.11401625589269
808, 44.735643820781206
809, 28.80866223384737
810, 13.703999471231327
811, 3.772535917248206
812, -1.4522329468663884
813, -3.3731139949081808
814, -1.7287140552666642
815, 6.9376301362763115
816, 20.277623407058854
817, 25.09879797074518
818, 22.91375526190359
819, 24.769132855928547
820, 27.728844545424636
821, 20.085470340960455
822, 8.088179112040962
823, 8.980719308608968
824, 13.93996197406068
825, 3.5853934762367317
826, -11.321576152254238
827, -14.261449525969965
828, -8.42863894350603
829, 2.574222309697234
830, 14.956375955748172
831, 23.330292571111386
832, 29.062360009004806
833, 33.20957220416631
834, 29.003174064719587
835, 12.671735064776385
836, 11.365328385191333
837, 37.67117239811341
838, 54.33228811409663
839, 47.44955341927425
840, 41.819940865947046
841, 44.59695098238035
842, 44.53859694830953
843, 40.09812699101985
844, 41.720130289885674
845, 47.97573176092101
846, 39.0287764504219
847, 16.36101590996668
848, -0.6488464818448847
849, -8.132391543154426
850, -1.115559789420331
851, 14.67912071875162
852, 21.772645994652976
853, 20.97419417092624
854, 15.627168431294649
855, 11.998126268742453
856, 19.478873679368917
857, 29.99720436021471
858, 34.19396605877728
859, 31.275464573545833
860, 20.642400016914053
861, 7.224027632970774
862, -5.516435100973013
863, -7.058827233717238
864, 6.531700477476534
865, 15.840938110213756
866, 13.797757862218532
867, 12.305549499583776
868, 14.955202022074445
869, 24.343194419510837
870, 38.761047335778585
871, 46.702587491370195
872, 45.24694571632017
873, 29.566689492848127
874, 7.973861364690492
875, 5.641057538015502
876, 18.181959309418744
877, 33.55792151881133
878, 46.82792196353739
879, 51.076033861135784
880, 47.95152103583632
881, 39.34471297201799
882, 34.65431645938452
883, 40.67051617722518
884, 43.929314646811235
885, 37.393424155210596
886, 26.38031414141551
887, 14.487398642721018
888, 20.392558333598572
889, 43.82313533127399
890, 57.92622315762128
891, 60.283988319353284
892, 65.30208708269265
893, 68.33483481224266
894, 46.77374314881217
895, 15.11970215952806
896, 13.34246168231175
897, 21.043130777478837
898, -0.07665063501417535
899, -22.68416418502693
900, -15.698564552596054
901, 5.151014912608389
902, 28.733665058844053
903, 53.27499738645247
904, 77.28538920916299
905, 85.35519070033251
906, 73.07945391031444
907, 56.32522875011455
908, 40.91542526708963
909, 37.15914916392012
910, 41.72265065061356
911, 32.750065269268816
912, 14.203718510451381
913, 4.502222336238901
914, 2.142825934315624
915, 0.7865646263726376
916, 2.6484192620232534
917, 11.228856260774592
918, 19.153986944818826
919, 18.413731951132377
920, 17.724134149018482
921, 24.082143096327854
922, 41.259459193255225
923, 69.01472368068698
924, 84.28420139283025
925, 82.41595017604959
926, 70.46275315962839
927, 54.214288925217716
928, 51.0969221635155
929, 57.48165670266053
930, 60.2509244977241
931, 59.12359116985044
932, 54.64340320540305
933, 49.62601442204641
934, 47.05708179358544
935, 53.10387061141
936, 70.77588597076237
937, 75.79497734607548
938, 60.09868711600939
939, 48.353882024922314
940, 45.28650168588092
941, 38.101136481604954
942, 25.863072590594584
943, 13.399500835081199
944, 4.774910970211749
945, 4.629486342872951
946, 13.064033181246941
947, 29.402927329540034
948, 42.299610540862886
949, 40.97400688958987
950, 26.639825511561867
951, 1.897550655427949
952, 0.9495479075312687
953, 31.04148979336196
954, 46.54798979138741
955, 42.992935090140236
956, 50.18413230462829
957, 63.574333346256935
958, 57.24350896935084
959, 46.164744668771164
960, 61.90506792885708
961, 75.48478211777001
962, 53.23494326362379
963, 26.808597734253453
964, 16.79484139777196
965, 8.298140397702355
966, -2.7571809278042565
967, -5.66955191408897
968, 1.3383902471987312
969, 14.29826547480161
970, 28.645260441187474
971, 32.735955386018304
972, 28.19061410953509
973, 19.61956995309265
974, 9.469639165241006
975, 0.4398736608404761
976, 1.4194677057753324
977, 17.225237618847586
978, 31.072510587640863
979, 36.118739859176
980, 27.954581312396385
981, 9.065247447969341
982, -4.005045320896443
983, -5.149739159706769
984, 20.056252953490002
985, 52.148784099324075
986, 58.91191173652123
987, 52.738264522588906
988, 44.78741656711691
989, 39.254576331628414
990, 38.92548028165038
991, 52.14729025488168
992, 75.29890403699301
993, 73.52011088820063
994, 51.377765307614936
995, 41.58141254564998
996, 42.57212051322858
997, 46.835792851029055
998, 50.649778664445876
999, 50.45617026544642
1000, 52.0397566127217
1001, 58.713636289962324
1002, 71.04651073150353
1003, 86.59890903100086
1004, 88.61004501897332
1005, 73.35557620089367
1006, 38.24827215192818
1007, -0.26430626666706303
1008, -9.921206524104036
1009, -4.146546010500515
1010, 3.5730111608522748
1011, 9.09364192558769
1012, 10.735586521152982
1013, 14.794299021833922
1014, 24.481275048770385
1015, 45.50409588402272
1016, 69.79090369668529
1017, 68.58120711137553
1018, 48.817252165521495
1019, 26.474065251095908
1020, 6.4776158497447796
1021, -6.789942411037828
1022, -9.47722441086853
1023, -1.275338434457808
1024, 1.645216936268298
1025, -1.1496147681991715
1026, 8.46876588379564
1027, 25.814022432591173
1028, 32.16674988068871
1029, 28.784273514076176
1030, 18.740273845395677
1031, 4.452644747635077
1032, -10.851215603226592
1033, -8.69710523236472
1034, 14.852834403155157
1035, 35.025568904273314
1036, 45.98673285441237
1037, 44.597901558044214
1038, 34.22049629916364
1039, 21.488458095792794
1040, 15.814099870822247
1041, 25.177058666407902
1042, 34.67682860369405
1043, 37.386025155359675
1044, 33.53860779130582
1045, 24.714247781622817
1046, 17.365729138051393
1047, 11.867436171030022
1048, 7.45351212634705
1049, 2.4187518949706828
1050, -4.765259368894476
1051, -11.711235312243844
1052, -17.00498818873075
1053, -16.278867303627067
1054, -9.267250291835808
1055, -0.724019711330584
1056, 5.845128862408728
1057, 1.837717193168828
1058, 0.13339228305630968
1059, 15.581975946976854
1060, 29.29193915567157
1061, 31.45059839286796
1062, 31.11467803870528
1063, 28.721685716446245
1064, 14.176779316653665
1065, -1.6884764809337867
1066, 4.6336303063480955
1067, 22.15598841084102
1068, 38.56829779328791
1069, 70.9067564524862
1070, 121.78228645299805
1071, 173.21125480210912
1072, 222.9900432213867
1073, 282.0920296211125
1074, 343.02052683227566
1075, 387.29225964859006
1076, 419.2221672125297
1077, 443.33588005242245
1078, 450.17208535160535
1079, 437.5962079230071
1080, 424.0876103558753
1081, 410.9344397374348
1082, 388.0407054375064
1083, 357.6003581626337
1084, 324.94403316553917
1085, 286.0303100640517
1086, 238.5606096570209
1087, 198.38629252020337
1088, 169.44675231222254
1089, 140.59149692530355
1090, 108.52053377812399
1091, 69.30796554494555
1092, 29.043595501688287
1093, -1.1356040349974137
1094, -14.936479717908242
1095, -9.74314397610351
1096, 2.8407542389500122
1097, 16.63216573342379
1098, 13.880303049157646
1099, 0.8396112327955052
1100, -7.073735242669045
1101, -9.670261908846442
1102, -6.4385072119894176
1103, 7.697109286482828
1104, 31.052757962532723
1105, 39.34713564574349
1106, 36.350949137186944
1107, 42.24407799130449
1108, 44.24863988094194
1109, 27.088012839353723
1110, 19.96676254186923
1111, 32.65759028140155
1112, 24.89582070989445
1113, -0.9416737417950571
1114, -6.366317435985366
1115, -2.519589087321947
1116, -9.672483287753039
1117, -10.97648999558578
1118, 2.8435163916115016
1119, 12.337214387031509
1120, 14.296415962237916
1121, 21.010500531033813
1122, 29.998623534593662
1123, 34.21538972287681
1124, 35.16927926360631
1125, 34.507875076809796
1126, 37.90882539681843
1127, 44.30727253939904
1128, 39.37640582654376
1129, 23.833774275817632
1130, 3.1888577532267846
1131, -8.436114912245102
1132, -0.7222067534653434
1133, 23.617154035226122
1134, 57.908880333655816
1135, 72.8933779913441
1136, 68.30722414421507
1137, 53.24881229234643
1138, 37.70337519877694
1139, 30.509266413946534
1140, 32.56986631957352
1141, 42.09355639250498
1142, 47.351512522693156
1143, 50.63514837331468
1144, 61.153127217757174
1145, 73.60335196611368
1146, 82.19697926625986
1147, 74.82608359370988
1148, 50.49034086417032
1149, 27.668872003138404
1150, 9.112043809237093
1151, -4.131939768589291
1152, -3.007681946741286
1153, 19.533297084288733
1154, 35.49391687666866
1155, 38.244429583341116
1156, 42.45290742145971
1157, 42.55590531565258
1158, 24.270856033680502
1159, 6.827629725424231
1160, 3.482312672694661
1161, 0.00670495154145101
1162, -4.650911698002346
1163, 3.7613439163683324
1164, 17.500570231612073
1165, 20.756786983667553
1166, 17.819111523381707
1167, 11.823012387373637
1168, 6.3673663726362975
1169, 2.0493555019920677
1170, -1.8280194134822523
1171, -3.4875193799575754
1172, -0.43551677241975995
1173, 1.2694544468367894
1174, 0.9457686795908558
1175, 13.087873359157584
1176, 31.600606494573185
1177, 35.05555767192345
1178, 36.31008761616158
1179, 46.94566731815303
1180, 46.16869284254744
1181, 33.0670259268868
1182, 37.442726684268564
1183, 49.844077812361775
1184, 46.97751626911122
1185, 40.75721019874618
1186, 38.081411956405645
1187, 29.59260180974843
1188, 18.181998688957265
1189, 20.08901123482974
1190, 28.853733594087316
1191, 35.3723034531331
1192, 37.487748478410595
1193, 34.26221348896797
1194, 25.54779653959804
1195, 13.370146787251088
1196, 1.9170030795057755
1197, -5.371492769217184
1198, -6.908034975796454
1199, -1.97394054241704
1200, 8.191621103578655
1201, 18.065585422983077
1202, 29.233215428308085
1203, 44.94894270520308
1204, 57.42353335021835
1205, 64.17643208493291
1206, 69.83618685244392
1207, 75.95910200910475
1208, 84.16853515680396
1209, 88.91497434207531
1210, 85.76143011916247
1211, 68.0945797204613
1212, 40.48673571235622
1213, 21.042720136096705
1214, 13.09972241141486
1215, 19.17494562776892
1216, 20.356689156763878
1217, 12.013501535624528
1218, 1.5535917290485486
1219, -4.4603298692609314
1220, 1.7630141027152604
1221, 13.75137920388579
1222, 25.741990305519266
1223, 25.6293324984872
1224, 16.990319436151367
1225, 12.24753564135517
1226, 5.032443235113988
1227, -8.5136858749961
1228, -19.285265009219984
1229, -23.403039527515375
1230, -14.023120280323838
1231, -1.5316677468204034
1232, 3.782793014856452
1233, 5.479255955399367
1234, 6.778269976930005
1235, 15.706124836262916
1236, 35.02899321924997
1237, 67.422441658342
1238, 92.44261517284804
1239, 104.25792253550435
1240, 110.15324946049213
1241, 117.66878751262993
1242, 137.69028277349616
1243, 164.4041571024577
1244, 194.5119510204795
1245, 227.38053076616825
1246, 258.537135090894
1247, 279.0481764023457
1248, 289.87021297409046
1249, 293.0265411050932
1250, 298.2312206589909
1251, 309.41130386599843
1252, 330.97250101890404
1253, 350.80561035984147
1254, 360.5978990426197
1255, 369.6148077244479
1256, 378.9034030978455
1257, 385.0274886951984
1258, 385.0840754305759
1259, 376.83687746395526
1260, 361.26524899078186
1261, 340.46739454558156
1262, 319.96103030851145
1263, 306.7850973709633
1264, 306.182070769602
1265, 304.9092939778543
1266, 301.35173737631703
1267, 303.08866451090853
1268, 301.3264499791635
1269, 287.7364076229478
1270, 277.0155015257419
1271, 269.1160865230868
1272, 248.58913468331411
1273, 218.2347587295735
1274, 183.40312139635398
1275, 160.26023227737414
1276, 150.98315544237403
1277, 145.8384805672831
1278, 131.4716028686853
1279, 97.52272274929419
1280, 75.7652588816427
1281, 81.10941663631775
1282, 97.91795201764853
1283, 112.80644132678253
1284, 113.26237538491478
1285, 97.20856339346392
1286, 72.26152122987423
1287, 63.11504577930373
1288, 55.273892623570646
1289, 35.786818287291226
1290, 18.795408070350277
1291, 10.786113483887675
1292, 13.220969608914857
1293, 26.082343797280146
1294, 44.73755215120127
1295, 42.59790868572463
1296, 26.05897537749729
1297, 25.177768449690802
1298, 22.827330723632713
1299, 9.428420571703782
1300, 5.723358641586628
1301, 9.59115330888767
1302, 6.686215041156174
1303, 1.5443378805041448
1304, -3.680837508059767
1305, -14.08743802970207
1306, -21.54092901901754
1307, -10.916481466994583
1308, 0.14143001744992034
1309, 5.217816824828105
1310, 9.669122567514023
1311, 11.913210062913777
1312, 9.576401907286481
1313, 12.504960383471143
1314, 19.36771470674512
1315, 12.998735096211703
1316, 3.673582466686412
1317, 1.8324252595250528
1318, -4.564462720985148
1319, -14.637030644431206
1320, -17.147882250230168
1321, -13.103342612645065
1322, -3.4928172086665654
1323, 9.732828178621276
1324, 19.51597171475464
1325, 13.047786278458489
1326, 3.7965657351553546
1327, -0.8008897989500383
1328, -1.0666979486300079
1329, 10.86957577873045
1330, 43.09422998840114
1331, 50.965537259730354
1332, 31.166326984142643
1333, 25.654977100839687
1334, 26.822408407103467
1335, 26.329031102774252
1336, 36.259596654425195
1337, 47.76249741684546
1338, 35.12481785327941
1339, 21.376538057223797
1340, 18.565242399808312
1341, 17.707605208567657
1342, 13.070203997121325
1343, -0.242758692053485
1344, 2.723942687740191
1345, 22.912756905888273
1346, 31.661970184494976
1347, 34.15142163552764
1348, 35.90685086393478
1349, 29.851864258780324
1350, 21.816226152591526
1351, 26.459761126136527
1352, 24.42794460844334
1353, 8.947305699846765
1354, -4.714181461219596
1355, -7.06264095938559
1356, 9.735329391149207
1357, 26.802652395750556
1358, 36.004185661315205
1359, 31.526742794998427
1360, 23.212450496260544
1361, 17.574125049416807
1362, 14.058771387691195
1363, 12.365997319329836
1364, 11.770660089012154
1365, 5.131682566358222
1366, -2.727561334031634
1367, 8.862618816979875
1368, 14.79392978600913
1369, -0.6065457077991141
1370, -3.7057940849645092
1371, 5.210322898184131
1372, 16.445746280602634
1373, 32.20765588851964
1374, 47.54344471792706
1375, 41.774552510975354
1376, 31.04251403345438
1377, 28.785165184353218
1378, 26.83268245150998
1379, 19.17111107751316
1380, -0.7470689485037383
1381, -12.267127442330548
1382, -8.827621052372024
1383, 7.5953174433693675
1384, 28.97120819925067
1385, 46.50130484125316
1386, 56.63540890516424
1387, 65.33011452916344
1388, 82.30061459183503
1389, 89.58376945501345
1390, 83.78810773952432
1391, 75.1682991784819
1392, 70.68693185899633
1393, 73.48587574319822
1394, 76.23516787573817
1395, 73.80972978606496
1396, 61.985438695477114
1397, 56.769234978881286
1398, 59.56667864225233
1399, 61.12083627164725
1400, 58.41241652784379
1401, 49.66797236412799
1402, 33.441376058992546
1403, 26.42238292241791
1404, 41.98653450860911
1405, 38.655766773216556
1406, 21.647293147703294
1407, 19.445043629738848
1408, 12.774353100554436
1409, 5.187306118573588
1410, 31.495302347761253
1411, 44.44215288721193
1412, 16.606417383133703
1413, 1.8087731717673705
1414, 2.182316949449387
1415, 9.17260062518767
1416, 29.195518379832947
1417, 48.912860524002554
1418, 34.881077659610355
1419, 9.932719468907635
1420, -10.055487432342488
1421, -10.304134203447802
1422, -1.3071732788637291
1423, 6.91917316735794
1424, 5.869010365626764
1425, 1.1012486695594816
1426, 2.0692541177741077
1427, 5.273820948810453
1428, 6.7364273782468445
1429, 0.9881333163921227
1430, 1.394290071118121
1431, 11.290883353912932
1432, 20.542602995323705
1433, 23.545916763973537
1434, 19.114072714049144
1435, 19.614033104353894
1436, 26.867285461459915
1437, 38.988815274940634
1438, 39.09789135360484
1439, 25.791609626863192
1440, 5.786929045708348
1441, 12.277643160408616
1442, 41.5364326962349
1443, 52.76503809854148
1444, 47.7569781003499
1445, 29.526679531993977
1446, 1.3024126795091888
1447, -9.04923268519019
1448, 11.53601151476164
1449, 14.335677143266366
1450, 8.370941329733341
1451, 14.012416560104384
1452, 13.023066673333915
1453, 14.58982906366623
1454, 40.017418564952095
1455, 43.55915825810666
1456, 27.293309668526945
1457, 36.48250811569869
1458, 47.12816317377906
1459, 48.43573271842365
1460, 47.59200738971663
1461, 41.41873847683405
1462, 30.27521181954785
1463, 28.231746860711837
1464, 32.17260548994068
1465, 34.79173181419719
1466, 18.420042328157024
1467, 1.2677453888322816
1468, 8.574326559587917
1469, 11.442775310733623
1470, 7.6875777155537435
1471, 8.801153559828208
1472, 13.52346952515154
1473, 25.509063824833447
1474, 54.915868546342836
1475, 70.30035329264638
1476, 65.14826144872404
1477, 60.17893935373627
1478, 52.469323379239086
1479, 43.989839725742286
1480, 50.295136855354485
1481, 49.46973589691606
1482, 32.70206064339504
1483, 33.747737520075134
1484, 31.649638239852266
1485, 9.71050924306246
1486, -2.082564663068979
1487, -4.008999764203509
1488, -1.3454858400518788
1489, 8.221204736847994
1490, 23.234444147227805
1491, 39.394353096119175
1492, 41.562807408245135
1493, 39.799592779395425
1494, 51.99392801147519
1495, 30.579036161076147
1496, -9.465809206470794
1497, -16.231453246086403
1498, -5.542591758392746
1499, 10.70599682137231
1500, 17.171248945563775
1501, 17.37542515919813
1502, 13.171661848178701
1503, 5.97252841891941
1504, 14.688574491224244
1505, 33.024776519819625
1506, 24.04642711790825
1507, 8.878636899508592
1508, 2.08550627271552
1509, 13.411654191843809
1510, 27.03996615315441
1511, 36.3532279057913
1512, 47.969718078477854
1513, 44.23506776160252
1514, 25.34105959086787
1515, 29.461750109859167
1516, 28.881782667012203
1517, 11.334329255593047
1518, 3.890299043423738
1519, 11.7822547120129
1520, 27.78419829700556
1521, 18.894761645201925
1522, 3.7683580449067904
1523, -1.766168374229892
1524, 3.1200980465609973
1525, 13.548948739569369
1526, 20.773367243878056
1527, 5.670360752530314
1528, -6.491717753706098
1529, 0.8932313815880661
1530, 18.960739553383064
1531, 26.039962099873946
1532, 11.308061242496933
1533, -9.430184250086313
1534, -13.574874996478457
1535, 9.00326836145291
1536, 40.34292945506127
1537, 53.08036456271816
1538, 36.558045200740935
1539, 16.275220575708317
1540, -1.3766378363886815
1541, -9.77937354412029
1542, 6.05709604520348
1543, 21.79593697585551
1544, 26.19096992085929
1545, 40.36875234036643
1546, 50.15750093587803
1547, 51.517025969164706
1548, 60.46652132698864
1549, 63.671832616490974
1550, 55.393929844299464
1551, 41.383264848345334
1552, 30.244033089354616
1553, 26.567833581432524
1554, 31.67997809153917
1555, 32.497141391452715
1556, 26.20078625080464
1557, 18.941050512516085
1558, 4.791033065870579
1559, -11.06800511195911
1560, -15.942568302165455
1561, -13.571213478913478
1562, -3.8701043059541007
1563, 15.12650360696307
1564, 34.167442172705705
1565, 43.730336697762596
1566, 35.24933693551543
1567, 24.74758316087673
1568, 19.113920226182927
1569, 25.030493111750275
1570, 48.55169332623109
1571, 85.3009384330685
1572, 128.92605703435584
1573, 160.93898331769196
1574, 183.95588861029137
1575, 202.28641228118408
1576, 215.46367138355345
1577, 230.72047978729597
1578, 251.45667042108767
1579, 272.74407993339787
1580, 283.35148754387274
1581, 279.5795983077253
1582, 266.50836653671695
1583, 243.05266097156164
1584, 213.61820865928985
1585, 188.14911246998076
1586, 158.40169776199127
1587, 125.67733074674038
1588, 96.78367679628514
1589, 74.23491239157465
1590, 56.48511432142004
1591, 40.70032970266698
1592, 25.361933839160884
1593, 13.598714242425558
1594, 5.547779944932927
1595, 2.798866361765022
1596, -4.494196131837953
1597, -16.597681879367656
1598, -13.19179943482618
1599, -0.5242452780689746
1600, 15.422439425349694
1601, 25.701902490511657
1602, 16.433101950738774
1603, 2.550291953467422
1604, 12.507209284002784
1605, 9.53587363939755
1606, 1.5752284622733441
1607, 7.155364087741873
1608, 23.181862059769855
1609, 50.45872413747452
1610, 77.97424802539354
1611, 59.49563043973899
1612, 30.282103614032394
1613, 12.42409559257976
1614, 9.008272747402088
1615, 5.435268968496075
1616, 3.200323390179392
1617, 12.010341969967385
1618, 27.447098499050753
1619, 47.8067579889439
1620, 64.59695931912165
1621, 38.383986992483415
1622, 9.07870682118687
1623, 2.396115376913258
1624, 0.8251358582874673
1625, 7.448653850682149
1626, 15.797874881752705
1627, 10.108337159040047
1628, 10.721693131971278
1629, 9.996188662310942
1630, -5.112408285611991
1631, -7.8334908510285
1632, -1.322134025667765
1633, 11.683357249442906
1634, 38.518122851947055
1635, 43.81310440318657
1636, 32.30434922762697
1637, 46.80923680240585
1638, 40.43994960748478
1639, 25.891398821978783
1640, 28.54924032058375
1641, -2.5138833022476774
1642, -20.992948108119208
1643, -4.005156467875167
1644, 1.1049037822238006
1645, 2.6150398468398635
1646, 2.992284169677305
1647, -1.0720420879713402
1648, 1.1408781825716687
1649, 7.0894276514111425
1650, 9.249650815012956
##END=



