##NAMES=
##LOCALITY=
##RRUFFID=
##CHEMISTRY=
320, 16.893958894153002
321, 16.638891922903895
322, 16.978177327970116
323, 22.367232308791245
324, 30.1213123120242
325, 35.52745630263871
326, 37.07094423034778
327, 29.25127237412471
328, 13.148851146665038
329, 4.512591388825967
330, 7.666746968357074
331, 18.463973313008864
332, 33.688336288072605
333, 47.8173734233651
334, 53.862251776829
335, 52.40019920444047
336, 45.08675267114177
337, 33.34260036122487
338, 25.37546334021954
339, 22.307409479287344
340, 18.620452749336437
341, 12.223272382829236
342, 10.053282669497094
343, 16.596375367265864
344, 28.166421576157518
345, 39.801374312145526
346, 50.91077758919437
347, 59.615071992097
348, 64.50635210967084
349, 54.18003840799429
350, 26.421498385716404
351, 4.130038939381848
352, -0.4816983622768021
353, 7.286372370431309
354, 22.734131004992378
355, 40.950743587894976
356, 51.91758313502396
357, 53.912245280234856
358, 40.43984465041558
359, 12.313401284857719
360, -8.24083965452428
361, -15.260702428821787
362, -12.19259875715943
363, -0.4466749049615828
364, 14.561750651808325
365, 23.846786193312255
366, 27.8214670004063
367, 27.789396170923283
368, 24.35555239763471
369, 20.61669773090307
370, 16.915150586060918
371, 10.713372838852592
372, 1.2019664174267746
373, -4.08836024732318
374, -0.580260010560778
375, 8.887259161739166
376, 19.680085130529733
377, 29.12308329499865
378, 29.50931805347136
379, 21.447806532563845
380, 11.625249808803346
381, 1.9905967546010288
382, 5.748627473992201
383, 26.98868103103723
384, 44.39756819462218
385, 43.54427633287287
386, 29.998802894348955
387, 11.629968709034074
388, -8.97493783065056
389, -25.737321635167973
390, -37.299387521975405
391, -30.24451608657637
392, -4.190066741576629
393, 9.535995480362544
394, 1.1344208931077446
395, -7.260491346084564
396, -3.3573611479741885
397, 2.5376693012249234
398, -1.9283424666018618
399, -10.903010663012537
400, -10.483884057588511
401, -2.611604788798104
402, 1.8873048410050615
403, 4.116355500204918
404, 24.122478699710882
405, 68.55569905339871
406, 124.26012706302663
407, 186.1501475098994
408, 246.5750103275268
409, 298.57017903776887
410, 342.881978323976
411, 380.8421125131599
412, 415.64605416766335
413, 457.7688180742316
414, 506.8475080377302
415, 555.2184732049536
416, 600.6602860080802
417, 630.0854306296906
418, 639.2879625710102
419, 646.1048246939044
420, 661.6262286130523
421, 678.8245817280012
422, 689.2513177344763
423, 691.690751912226
424, 683.4813123447029
425, 664.519884145323
426, 634.7831741039709
427, 595.7747833529065
428, 559.4518511493416
429, 527.6223684752222
430, 484.8874380440129
431, 425.2871016445906
432, 358.3747852160768
433, 290.8634080374277
434, 228.2692488605926
435, 177.9235220124683
436, 138.36374125939983
437, 106.03165819077458
438, 79.4512589324695
439, 60.98541663812375
440, 49.13531554838937
441, 50.53555898299692
442, 66.6208564094477
443, 84.11485413751052
444, 99.87647425038358
445, 119.07525558548605
446, 145.21767025274312
447, 170.9684300322906
448, 187.17890000447096
449, 199.87932438919233
450, 222.30189285625602
451, 247.65767192307885
452, 248.659252872455
453, 226.31180328448954
454, 205.39095058949988
455, 190.39856940789105
456, 178.65257021039088
457, 169.13636289905662
458, 155.29549541735923
459, 133.45208344405546
460, 102.1512231548968
461, 59.96126360811377
462, 15.912821185912435
463, -12.81835560627951
464, -28.233808255098666
465, -30.13516775201697
466, -21.363286613738637
467, -14.597309803168173
468, -11.026861835674936
469, -10.72587256683164
470, -13.37737150861085
471, -10.983292763812642
472, -0.12275435801620915
473, 6.502515625446904
474, -0.24564397340782307
475, -12.925810110123166
476, -24.245604309895498
477, -30.806728040134658
478, -24.577488969390288
479, -7.442422649105538
480, 13.812838633556566
481, 36.42987925534453
482, 45.42151090931111
483, 40.025505215894555
484, 33.117658010052764
485, 28.160187783811125
486, 31.44219131761838
487, 45.31149244028347
488, 57.70692202792634
489, 60.96029298245685
490, 53.87028423385436
491, 35.163815226590486
492, 15.832162282045829
493, 14.947976590056896
494, 24.217337125734957
495, 19.9862822503801
496, 4.406371385437524
497, -6.809687983694857
498, -13.295393729053103
499, -17.801535503685045
500, -20.550687238538558
501, -12.758177263992366
502, 8.801254465382954
503, 30.073454922923702
504, 45.173681304238926
505, 64.62533746919962
506, 97.3851586191713
507, 144.44970530334467
508, 193.21430464751484
509, 245.86592075838234
510, 306.7262250267768
511, 371.32500479889677
512, 425.8979224497907
513, 473.6248522869673
514, 533.569232190026
515, 604.7209777696253
516, 661.3810149837509
517, 699.353972823249
518, 733.6458246995007
519, 768.3428748633469
520, 782.3832313944176
521, 765.9357871304974
522, 748.072163149508
523, 749.669081389231
524, 751.3707976287451
525, 731.4622117476956
526, 700.2036700286335
527, 675.1386065565939
528, 655.2067281207801
529, 636.9871982206869
530, 621.9013709235132
531, 615.866671958519
532, 617.0150549758318
533, 611.6476717501519
534, 599.6611390381659
535, 599.519342370957
536, 614.7396930756249
537, 630.7336749207934
538, 642.3252929398986
539, 647.333507497875
540, 644.6566664788352
541, 635.0907484858772
542, 619.2236458343959
543, 608.2683761826529
544, 614.6536537322545
545, 621.3936726641405
546, 600.8672538574447
547, 565.0446015967264
548, 542.5764581577332
549, 531.716574860684
550, 522.9108757933418
551, 515.8446914481774
552, 512.5686611799674
553, 509.9743103706014
554, 484.4360929143195
555, 433.70061603103386
556, 383.3294911725088
557, 340.49507799873754
558, 307.0481392538377
559, 283.553829588006
560, 263.26585221977166
561, 242.54834679768646
562, 219.6141218370767
563, 193.11900301046626
564, 168.15619584338947
565, 150.21843282053396
566, 132.00632233380566
567, 102.42630908462161
568, 64.68480878599348
569, 32.1827549238551
570, 6.431749283897261
571, -2.308060174910679
572, 2.370104884365901
573, 7.443544879346518
574, 10.121339808927587
575, 0.21299441149858467
576, -21.529251160025524
577, -32.26467356849298
578, -28.257152434103773
579, -13.356276043363323
580, 11.618735740642478
581, 26.90932525752396
582, 24.751478876767578
583, 12.943838304598103
584, -4.4177341993499795
585, -8.956695955755094
586, 11.39623075567215
587, 32.555558503801876
588, 32.097959552490465
589, 22.20923197009415
590, 17.778718071416733
591, 15.946414961413211
592, 12.017586389358257
593, 11.51430376996268
594, 26.246070545478688
595, 43.87169770351011
596, 29.58994823868761
597, -7.001987411545997
598, -25.62887233456422
599, -26.891073517048426
600, -21.55764420233845
601, -11.476886999583257
602, -2.099343393637355
603, 5.554915720183089
604, 4.547583173998646
605, -5.518300574738532
606, -11.485932731950925
607, -10.493277349953132
608, -10.023266778705874
609, -12.62655406891372
610, -14.67817095436294
611, -14.669526317767122
612, -15.226805452055487
613, -17.866823455973645
614, -17.32573620824496
615, -9.58646488613067
616, 0.7937644573357829
617, 10.00228388841333
618, 23.4649206140939
619, 47.76765939639063
620, 79.67253705906023
621, 114.07465399031935
622, 145.91398909773125
623, 180.56451615383048
624, 215.69485881800392
625, 245.92009151445018
626, 274.2748747879923
627, 309.43208175775726
628, 352.12610731187124
629, 403.19510116145375
630, 459.1229842779985
631, 505.69968597622574
632, 543.9861942411326
633, 586.2154722050727
634, 632.8585449364737
635, 677.0934844296817
636, 718.3724695493493
637, 760.9656484200141
638, 802.6871361348058
639, 815.2515433614835
640, 795.1887926058771
641, 783.2343056727887
642, 789.5806647089912
643, 788.4569553303782
644, 771.1823216788371
645, 741.4452228637219
646, 700.8216310098733
647, 652.0027184926685
648, 596.6471588462728
649, 553.3670037262618
650, 532.1657122428796
651, 512.7394152079796
652, 482.0433183212044
653, 433.7970692381159
654, 363.3345472907504
655, 289.195039183317
656, 227.5221307216998
657, 178.82417547150453
658, 143.61914154019087
659, 112.6113997296934
660, 74.78776635972645
661, 41.15274686296834
662, 13.161702767960378
663, -9.527518600541043
664, -25.41865226209393
665, -34.0112936473879
666, -32.53507316424293
667, -25.30694328653135
668, -20.567822479613824
669, -15.127161843807698
670, -1.9035430674721283
671, 13.996946425750139
672, 16.296941407102167
673, 6.768959153717333
674, -7.643316247088478
675, -21.72235009259748
676, -19.96407984952657
677, -4.4447146591191995
678, 15.002094651658808
679, 36.84327862000282
680, 57.17141947773416
681, 73.72204540425537
682, 78.82956134725646
683, 75.63812991691157
684, 81.56416099407761
685, 93.37809843972082
686, 85.64139544507998
687, 59.84251694583145
688, 41.27155282535841
689, 32.11003173845347
690, 23.9722959787523
691, 15.476426047207497
692, 6.2637507285762695
693, -2.8885255847953886
694, -11.492258947269875
695, -19.271066960580356
696, -20.67089508747995
697, -14.388638714534864
698, 1.7122632442096801
699, 25.951451992727016
700, 28.306673066072108
701, 6.112556779927218
702, -5.062515691070075
703, 1.148961462799889
704, 18.920544411650553
705, 48.18489191619119
706, 89.11394305909198
707, 144.15511306792177
708, 194.7724019711086
709, 238.94909604273562
710, 282.59146491828415
711, 327.962402327611
712, 382.36399169476954
713, 445.8361703734272
714, 494.27251518678713
715, 523.9555834561143
716, 575.1918876993159
717, 655.7198795006534
718, 712.4246099530237
719, 731.9405965419237
720, 748.3933724530671
721, 770.8013391752402
722, 780.8429406630603
723, 774.6560982934179
724, 775.6444606388213
725, 788.1587305859493
726, 774.1929265685121
727, 724.899168730898
728, 678.4424845793847
729, 646.0001064201651
730, 619.8268081948199
731, 596.696427202498
732, 565.7895455023072
733, 523.1106266307534
734, 459.75658754986034
735, 375.39303364867646
736, 297.81511249472624
737, 234.15183465190785
738, 172.9450150785924
739, 111.8370069160519
740, 60.92474226426384
741, 28.605424383227728
742, 6.0678319483495216
743, -10.00714074346979
744, -16.725603297525595
745, -14.787448566949024
746, -15.304240777870291
747, -19.81836765380831
748, -16.995043375512978
749, -5.121342904878475
750, 5.477554453455014
751, 12.665040251424216
752, 11.185560999231711
753, 1.7955286647447792
754, -2.4374721801395935
755, 0.9164278910884605
756, 14.00314703593449
757, 34.87135864028551
758, 49.6622759004249
759, 56.45786558053078
760, 58.20151309230096
761, 56.281951977050085
762, 55.59807539020494
763, 57.16048660682736
764, 62.36796676212816
765, 68.85495506424559
766, 65.05731825866678
767, 53.19053435936257
768, 48.28158085463656
769, 50.331668875828655
770, 53.14069499543075
771, 56.59492487046555
772, 62.3633808065606
773, 63.82942809986707
774, 39.86340967261003
775, 1.337484675154883
776, -16.509741122928972
777, -17.7777560532777
778, -13.930964682311242
779, -6.697086641733222
780, 1.0872057319165833
781, 5.7123920689518854
782, -1.8801848096236426
783, -10.267889931879836
784, 1.495986385998549
785, 23.139482064619187
786, 35.130113037917
787, 37.50126589191677
788, 30.68839072324863
789, 22.231595490262407
790, 21.55203710702881
791, 32.09392910397037
792, 53.05683071076692
793, 74.28565381052522
794, 86.37584397814226
795, 87.68278299616577
796, 77.02207238206029
797, 68.1519010956581
798, 70.34868810329499
799, 77.35499873127173
800, 85.67842419164117
801, 101.79987344677193
802, 128.05813629846762
803, 141.43767946115986
804, 133.16374083369828
805, 124.15234216534645
806, 121.14936369390944
807, 111.05515558064417
808, 91.58385759572775
809, 81.67153211869118
810, 84.71079405438559
811, 87.40582430165887
812, 86.29070659736772
813, 77.90930590852167
814, 62.196720917991115
815, 42.18196309423547
816, 20.34561198229858
817, 7.632786724084326
818, 3.7178122757268284
819, 7.840855486500004
820, 18.83526365340731
821, 31.314250817127686
822, 42.92034308635448
823, 48.6186732082615
824, 49.56564449328471
825, 48.557748236362386
826, 41.25839217063094
827, 20.40365874334202
828, -1.278638096555369
829, -6.884908241620906
830, -1.74389931429414
831, 9.531401562925566
832, 15.285680179404153
833, 5.935295975233203
834, -1.146098251235344
835, 4.885950339512419
836, 6.76086716799
837, -3.8005260746758722
838, -8.372066709182036
839, -0.9509763554378878
840, -1.5099409874983394
841, -14.359306892278255
842, -13.74704784712685
843, 3.6387242577093275
844, 10.915452967838974
845, 4.938774278020901
846, 3.234989941720414
847, 7.38970598445394
848, 14.081834010188686
849, 25.545846063282625
850, 49.47087736972662
851, 80.73397500385727
852, 111.46725985546982
853, 139.80313944541467
854, 162.8198021186099
855, 182.83852296274836
856, 203.50992325574043
857, 226.13437220717879
858, 252.14011595808188
859, 271.72420769321616
860, 276.6448100682237
861, 269.53330689105314
862, 252.63200193520152
863, 244.3771875657594
864, 252.5669227234157
865, 259.64791055104524
866, 259.2296304182164
867, 250.93738157799817
868, 236.97573464899597
869, 234.1479446571875
870, 242.77684462829166
871, 247.17250218696245
872, 242.01644064304492
873, 215.70100949919015
874, 175.73548151231262
875, 146.0695561217126
876, 130.25819520153254
877, 132.7184877876207
878, 139.37668968423986
879, 128.85959645036928
880, 111.54626682691651
881, 98.81218326472299
882, 90.99375540729397
883, 88.32110781008214
884, 89.84492660135584
885, 94.01277377225142
886, 79.82584344305997
887, 42.0079986897199
888, 14.600751752083852
889, 6.494779272339656
890, 0.8250641054028165
891, -5.068266393671365
892, -6.333442565423866
893, -4.285932102992774
894, -5.315652645073897
895, -7.259580408623151
896, -3.440146714193361
897, 3.3901429645857206
898, 7.970074777137597
899, 7.155050230172492
900, -2.2234923477853954
901, -1.995140565994916
902, 21.886528184118106
903, 35.80755201026932
904, 22.38126528731027
905, 5.925267476074623
906, -3.4329696519816935
907, -4.717666321572324
908, 4.185099945551883
909, 35.316374375070154
910, 79.21756372777872
911, 89.29423397535811
912, 73.32499312132859
913, 68.65569029172275
914, 76.2732732239665
915, 93.53724129459715
916, 116.1701330116075
917, 138.58205511038705
918, 146.28530709914048
919, 127.50869531583794
920, 113.55331130240756
921, 121.40177062803286
922, 137.2344666317622
923, 154.89967475559843
924, 165.71312573201703
925, 167.84619016712804
926, 163.50363834296422
927, 157.72756917936385
928, 168.09659310134793
929, 190.44690853700558
930, 210.2995662012927
931, 223.15668617667689
932, 222.77562626937652
933, 217.60285800323527
934, 216.36682577632928
935, 205.71212984215254
936, 177.9431023714269
937, 157.5249354073776
938, 153.38059930631334
939, 149.41947011809134
940, 142.66425754255215
941, 142.11464485150918
942, 141.28591990250425
943, 109.51014914411553
944, 61.02241038833836
945, 37.94029144796423
946, 37.26338279764968
947, 45.31837505365729
948, 60.31636888611865
949, 83.85373530789002
950, 92.13767920079135
951, 72.50940674245794
952, 47.78869683769062
953, 26.767088058310947
954, 12.36235814911197
955, 5.979638667149629
956, 4.486960574826298
957, 8.035566634152929
958, 18.90763776361291
959, 31.210534709635795
960, 35.10026644831305
961, 30.85648526892419
962, 19.091183649345112
963, 2.7799446488106696
964, -14.665830793024725
965, -9.648939321674334
966, 24.31128328437626
967, 45.183806566378735
968, 43.48112302696427
969, 26.04014367507898
970, 0.06842245321331575
971, -15.144301987522795
972, -18.066506546500023
973, -5.815798829150026
974, 8.778216149445598
975, 10.75976618227196
976, 9.324325100967599
977, 10.23981027992113
978, 12.308791354652385
979, 14.125988937194961
980, 7.782037811819919
981, -5.901507597311593
982, -15.8454491803991
983, -19.46055647790763
984, -11.383347993228199
985, -2.1674971866418673
986, -8.997015533645026
987, -17.839092719945256
988, -16.8003329577341
989, -10.158454085879384
990, 0.5793584430721239
991, 16.427834313325548
992, 33.018280245451024
993, 25.560093717903328
994, -0.7502375902040512
995, -16.45039555291214
996, -19.734526022913087
997, -8.801371145033045
998, 4.531980549849322
999, 8.318198637849946
1000, 8.349549601980925
1001, 8.401319772019178
1002, 18.450782805223298
1003, 41.57194314021535
1004, 68.54776545665436
1005, 92.02885511591967
1006, 91.26247136018583
1007, 78.76685111259621
1008, 82.16691706537176
1009, 101.63018154273504
1010, 136.18960484410854
1011, 165.07007701025623
1012, 176.5961164021719
1013, 170.96460085604303
1014, 152.43163465102953
1015, 146.22991452627593
1016, 153.7232232499905
1017, 165.82083509843596
1018, 175.55216283109212
1019, 171.85656698687444
1020, 162.36433975154796
1021, 154.06986663993666
1022, 140.30041894917713
1023, 118.79262661825624
1024, 99.88081213348505
1025, 85.762241618183
1026, 73.78433232558791
1027, 65.9307074704866
1028, 74.83211311701234
1029, 86.47931993085649
1030, 90.21444008075832
1031, 86.87266841508335
1032, 78.28843314006508
1033, 86.12801697359328
1034, 114.10103589424534
1035, 132.22598163135171
1036, 137.44736875830085
1037, 139.10791319838017
1038, 135.8279633283737
1039, 123.64919025925201
1040, 120.65264590684956
1041, 142.01592179258023
1042, 144.88648604633772
1043, 113.04285400143044
1044, 81.24681142490272
1045, 56.40463425020516
1046, 32.06840518703257
1047, 14.896661542841684
1048, 22.490321658169705
1049, 29.772562565334738
1050, 10.943984946542514
1051, -2.508208071086756
1052, 2.101071639625843
1053, 0.3233883096409045
1054, -11.318566584597193
1055, -17.233540204729707
1056, -19.142809165767176
1057, -25.00405552717075
1058, -24.886783198462126
1059, -6.508089164128705
1060, 5.544825348596532
1061, -0.7233405469560239
1062, -7.175122764131629
1063, -7.680202566912612
1064, 4.780776029774188
1065, 33.08995027022456
1066, 81.74706236013299
1067, 147.08680764457768
1068, 211.4518765425919
1069, 288.94041346859285
1070, 386.1639396392543
1071, 493.6223214615238
1072, 602.4820911257302
1073, 685.2733970206173
1074, 746.1047059652101
1075, 800.3444277779668
1076, 838.0652650545567
1077, 849.0610079058865
1078, 835.9169988970875
1079, 799.0115943524311
1080, 731.6083508254214
1081, 640.7689724318084
1082, 557.2182758970107
1083, 476.0291687144759
1084, 383.97899695367187
1085, 288.5616150552414
1086, 196.61180097237593
1087, 123.12431094292879
1088, 72.22700866846026
1089, 43.005953004181265
1090, 26.408588750169656
1091, 7.742194025905974
1092, -15.356035938915284
1093, -44.313470972212144
1094, -51.98577846982107
1095, -26.497334130413492
1096, -8.001433799878669
1097, -2.5603171066277355
1098, 3.647301824394617
1099, 5.815822535401821
1100, -9.273071615429672
1101, -13.382968491564952
1102, 14.466188820184925
1103, 23.885077699331305
1104, 2.8442781664757604
1105, -5.474307522822983
1106, -1.6609057887349081
1107, -3.8878513640879646
1108, -1.9848688131892231
1109, 16.51802976778845
1110, 18.195205933075158
1111, -8.366941634987143
1112, -19.030659796284
1113, -11.430162265876788
1114, -7.257207606502561
1115, -4.5295476614041945
1116, 2.1223971763370173
1117, 7.866618253396155
1118, 10.962735461777811
1119, 25.27279546336422
1120, 51.33263777097363
1121, 66.95728980313515
1122, 73.05269234060006
1123, 75.3201486570947
1124, 84.48627657904854
1125, 107.31031036142986
1126, 125.0816352893844
1127, 134.1326319781433
1128, 146.71438809483425
1129, 160.15416556380887
1130, 165.46016324070752
1131, 167.08379854435452
1132, 168.8734170134362
1133, 167.1221016201357
1134, 164.86907038484378
1135, 185.59247749580527
1136, 226.20200613792258
1137, 271.99804539888237
1138, 298.5801180373819
1139, 285.5184838639516
1140, 257.40118950755823
1141, 226.9566587815325
1142, 212.9074034275236
1143, 210.97293410919337
1144, 205.03950481649827
1145, 191.81198480803187
1146, 169.2352830745076
1147, 144.0676681974387
1148, 121.60273198745153
1149, 116.53826246850394
1150, 112.79196064217012
1151, 71.23775542691465
1152, 25.0995734342182
1153, 5.463233676156051
1154, 1.9303113845485314
1155, 11.436294865590753
1156, 35.81153446400231
1157, 58.94573070873412
1158, 51.870984104179115
1159, 32.36624101898224
1160, 13.917931566404604
1161, -5.318059553180774
1162, -22.52996331961822
1163, -23.72725142465424
1164, -13.511726208704658
1165, -0.9038582987036534
1166, 10.366479998266641
1167, 16.519841499561608
1168, 9.121712407960331
1169, -6.324924156901034
1170, -5.950324059322156
1171, 0.6510743177673248
1172, -0.18608337056139135
1173, 4.500614152092567
1174, 19.627672884805634
1175, 32.77678580048541
1176, 47.5874208066889
1177, 78.48322338380376
1178, 97.44169364791833
1179, 80.61596932529665
1180, 73.35455760350214
1181, 85.9965093094761
1182, 92.18715803534906
1183, 98.12758857503559
1184, 120.3329012257218
1185, 127.26071044827586
1186, 102.08062238589264
1187, 77.70832461305281
1188, 59.63413206624273
1189, 39.80964592945111
1190, 22.113276995964952
1191, 11.591779954818321
1192, 4.145532732860829
1193, -1.7068284284032416
1194, 1.7638191844630455
1195, 11.607682988169472
1196, 18.299973493598827
1197, 14.487905245219736
1198, -3.1055718694979078
1199, -15.99484322135686
1200, -17.29733135927654
1201, 3.3607518604922006
1202, 30.91232975688763
1203, 43.356743819850635
1204, 48.24484241787286
1205, 50.4288831613253
1206, 58.548332048776956
1207, 73.47315407710812
1208, 94.14018815159125
1209, 96.31621007315789
1210, 68.96031125781883
1211, 58.20795260022123
1212, 67.9543747452285
1213, 76.95635055888442
1214, 81.76492584339985
1215, 79.88733192113068
1216, 65.3759495931181
1217, 39.53570601528554
1218, 17.33578284876876
1219, 0.2666835433237793
1220, -11.948355901994091
1221, -17.52243641472205
1222, -15.60796010684362
1223, -6.931153539895604
1224, 2.124328035749386
1225, -2.8894374503993276
1226, -12.61494130091387
1227, -19.41840118136679
1228, -12.964950204065644
1229, 3.910893725776077
1230, 14.492229421387947
1231, 24.70441249593432
1232, 41.81754239676138
1233, 70.76990570809176
1234, 114.33633937787909
1235, 160.82396050373745
1236, 203.3258949456217
1237, 233.39159449381032
1238, 253.99022651099858
1239, 272.37137138587605
1240, 318.3692678663515
1241, 373.72214775543716
1242, 401.113457735813
1243, 417.132822338227
1244, 430.5485508974393
1245, 438.73906138889697
1246, 452.64745822044324
1247, 495.2326786229105
1248, 529.0987892213079
1249, 533.4118125329901
1250, 537.224717021265
1251, 543.0914143624204
1252, 542.2335081679794
1253, 539.381172519702
1254, 537.5788168573094
1255, 529.0501054204688
1256, 519.3771516601882
1257, 529.1273968372848
1258, 540.6713268198696
1259, 538.8509471860375
1260, 534.7214374002874
1261, 528.165966326279
1262, 509.5710067684663
1263, 501.68247808194974
1264, 523.9090701374121
1265, 542.1644266018375
1266, 546.6921611656594
1267, 538.9601079020958
1268, 523.6270649023127
1269, 506.9188318366537
1270, 510.8368785218054
1271, 530.806516585928
1272, 528.7193898170622
1273, 516.9297113387579
1274, 511.3825373058098
1275, 513.0510688354789
1276, 518.8822315515008
1277, 517.7097829340246
1278, 503.5427968947247
1279, 474.09610679475645
1280, 467.2912608545794
1281, 486.7071971186301
1282, 506.2415626433267
1283, 516.4147140791852
1284, 511.01311786932774
1285, 502.45790291618505
1286, 491.094822692668
1287, 467.0806298878915
1288, 440.4376706973799
1289, 420.6531880604707
1290, 408.0605876090681
1291, 399.2258276167249
1292, 384.5679368379165
1293, 366.7474684480976
1294, 348.48041832674517
1295, 331.5733011846605
1296, 321.1704692118428
1297, 328.33975053791346
1298, 330.49548242939136
1299, 314.31647403036413
1300, 296.103140581944
1301, 275.0722727405696
1302, 243.40415189164423
1303, 220.0569284399503
1304, 211.08964903263586
1305, 188.79493030919048
1306, 158.41675473517125
1307, 136.02496719330793
1308, 118.32277731632212
1309, 102.51179207866744
1310, 83.25606898149044
1311, 53.986814645644245
1312, 14.444882190748103
1313, -3.108037764630808
1314, 5.53690402697157
1315, 16.268215337892798
1316, 28.486828766447616
1317, 40.56362714004581
1318, 47.26511690959114
1319, 48.99280829160807
1320, 50.51631833134934
1321, 39.7567949681802
1322, 11.95801158384711
1323, -3.8437069244005215
1324, 0.3896712129762818
1325, 28.99153773760918
1326, 36.747346394421584
1327, 9.064364807904894
1328, -12.558236635369212
1329, -20.800117254699217
1330, -12.072763875677083
1331, 20.11119344927829
1332, 59.81230196110528
1333, 43.48816366187884
1334, 10.894554997359137
1335, -0.032560748393734684
1336, -4.253289580023193
1337, -6.0658021870717675
1338, -6.4125651202029985
1339, -11.517481425737515
1340, -20.98123425732092
1341, -11.864606171622654
1342, 7.98075029413576
1343, 21.976868959989588
1344, 28.849684129264915
1345, 31.15883649149464
1346, 38.78573180687454
1347, 47.798837127392744
1348, 53.42054099906272
1349, 49.439703593133345
1350, 36.46650626363453
1351, 19.045544675960628
1352, 13.693167859566984
1353, 24.204795431832736
1354, 29.60718988890585
1355, 22.82108715070717
1356, 0.701202167194424
1357, -9.241830032021426
1358, -1.872927189494476
1359, 17.773147616386723
1360, 32.82509167165972
1361, 32.951622515493455
1362, 21.51366898654942
1363, 9.613595804592023
1364, 12.152550768600122
1365, 15.762596133153238
1366, 14.219665786932183
1367, 3.434306290851964
1368, -4.657904461011185
1369, -2.532662021725173
1370, 4.957335076943764
1371, 13.576465176813599
1372, 16.50143849675578
1373, 21.988853832168843
1374, 28.474993854071727
1375, 19.36746694775684
1376, 10.510059610595363
1377, 15.673858951746297
1378, 24.164381585507726
1379, 33.88849054833054
1380, 44.15637920439076
1381, 46.07998876849115
1382, 38.79983904481287
1383, 31.485955396090503
1384, 31.855424114046855
1385, 43.273628189462215
1386, 50.78950394944741
1387, 57.42776729046227
1388, 71.2814658666116
1389, 67.0456149180227
1390, 44.14672656500943
1391, 29.60578029888893
1392, 15.175989008906072
1393, -2.488672544287965
1394, -1.541503239985559
1395, 13.245816796642885
1396, 29.5005133751215
1397, 36.2088535404946
1398, 29.540422364505048
1399, 8.871288626803562
1400, -6.684508836928217
1401, -8.152198266550386
1402, -1.3811944020776536
1403, 7.755903747342018
1404, 12.740537308637158
1405, 9.383680993775215
1406, 2.2281448224198357
1407, 1.833802893333086
1408, -0.014247008255097171
1409, -4.502806719989621
1410, -3.4708450003181497
1411, 7.167671355195125
1412, 26.573384840184644
1413, 33.33241401008263
1414, 30.320588147837952
1415, 25.547673125786787
1416, 13.471935965641023
1417, 3.651946306847094
1418, 20.17529129254899
1419, 21.73028694072582
1420, -1.9830330410695751
1421, -14.764203655613983
1422, -17.182947222159328
1423, -11.100532092533285
1424, 7.451627984401512
1425, 25.43908305756804
1426, 26.439310602590467
1427, 45.179545844146105
1428, 81.44740037755673
1429, 104.24494667352701
1430, 119.80454035408684
1431, 135.02947685498884
1432, 162.3227588746745
1433, 203.38322119502982
1434, 254.35537902290798
1435, 291.48197454142473
1436, 316.5218997505517
1437, 337.06070765722416
1438, 365.3705565285268
1439, 403.3412116098648
1440, 447.6859721503015
1441, 475.12072089492267
1442, 481.2285100786844
1443, 477.4043291207695
1444, 470.39498264237955
1445, 467.0329334074163
1446, 481.14021093901965
1447, 489.84525602612166
1448, 477.87130713885654
1449, 472.6126013650037
1450, 465.34935872620053
1451, 442.8991370158269
1452, 435.90800899938586
1453, 444.99620133328244
1454, 457.5326379069061
1455, 471.08341000714563
1456, 477.4932403287771
1457, 459.3600052015918
1458, 451.126434671673
1459, 468.0300888541169
1460, 502.43780807763187
1461, 526.6251631446598
1462, 525.817202564871
1463, 517.4472234983309
1464, 513.8406400304134
1465, 523.058131692208
1466, 535.4029970789766
1467, 538.4092030106294
1468, 520.4157009127707
1469, 503.7464944727012
1470, 484.7809966579671
1471, 448.52240312818185
1472, 412.583853040192
1473, 378.8757711293365
1474, 339.17677791627284
1475, 316.9926010829822
1476, 306.7970504283753
1477, 263.7803295379299
1478, 227.53351374790236
1479, 210.69044788497513
1480, 174.6147735592226
1481, 138.92722987017396
1482, 113.05329129304664
1483, 66.58295236873937
1484, 28.007065287108162
1485, 12.023991083160126
1486, -4.520069521508049
1487, -15.311777600856658
1488, -10.935013932026777
1489, -5.455777338722783
1490, -1.2412202917703326
1491, 1.51394523249337
1492, -2.731964968491866
1493, -11.10128884302867
1494, -16.555057172975012
1495, -15.460401611082943
1496, -5.843461457114699
1497, 13.158284300227933
1498, 21.291050895514218
1499, 15.849966373191364
1500, 6.705774494227171
1501, 4.512535196279714
1502, 5.557628600783119
1503, -8.25102180262138
1504, -17.872862786089627
1505, -15.308955214914931
1506, -0.5959473974276079
1507, 24.21739446615902
1508, 45.08456583350835
1509, 25.158546855053828
1510, 3.342174801818601
1511, -1.3710323369341495
1512, 0.2506530848163493
1513, 4.3706331907146705
1514, 6.683326260929334
1515, -1.4359231846556213
1516, -6.642664117608547
1517, -3.670760479642013
1518, -3.852895290629476
1519, 1.6167346901456767
1520, 14.713303132148667
1521, 15.696617602832248
1522, 15.235737113925097
1523, 17.999683559338337
1524, 7.378829265288459
1525, 0.006087825274789793
1526, 4.21518977629421
1527, 0.517998023774453
1528, -3.945874751188512
1529, -5.035744057394368
1530, -11.296494867422552
1531, -11.112415700498786
1532, 1.096404607435943
1533, 10.58402679130677
1534, 20.025456978746206
1535, 30.263131931952103
1536, 31.694882550913007
1537, 27.877677304549707
1538, 19.911309016346877
1539, 0.11034109145612092
1540, -8.924032494292078
1541, 0.3050150969952483
1542, 3.7650158874253066
1543, 16.828517455702695
1544, 41.28550227290816
1545, 47.688407739191916
1546, 48.08640620535016
1547, 45.64696203008725
1548, 24.55008179841252
1549, 16.43893239354429
1550, 27.97467881441571
1551, 28.51328674073693
1552, 26.705014940020646
1553, 21.249919856298675
1554, -3.2714584223699603
1555, -13.067509995544242
1556, -0.7524283682428177
1557, 19.186684178577707
1558, 35.890978936799456
1559, 35.72625242131744
1560, 2.1088031018039146
1561, -12.012610887856226
1562, -4.114540252497136
1563, 1.985972044596565
1564, -1.8147072710548855
1565, -6.300755437279349
1566, 7.11414121419466
1567, 48.38763711138108
1568, 103.21925140863414
1569, 143.0512600655352
1570, 182.6032105115296
1571, 232.12833759996238
1572, 297.8837094436658
1573, 372.34085279396277
1574, 443.4247037484288
1575, 506.5179120192133
1576, 580.162488356918
1577, 640.6124227400819
1578, 668.9555912495875
1579, 658.4940982769394
1580, 624.3347648610143
1581, 574.113818214706
1582, 507.1765706667952
1583, 436.1774447485045
1584, 362.28762963079316
1585, 279.29682077087364
1586, 217.38291464303575
1587, 170.24156595455815
1588, 113.19661075956355
1589, 57.180027174909355
1590, 21.005394290489676
1591, 12.423706143518302
1592, 22.33510959697378
1593, 26.842025458167427
1594, 6.210065270831819
1595, -24.565194286310543
1596, -38.38336163276563
1597, -20.466895066937013
1598, 23.176878188765386
1599, 48.288069628816174
1600, 47.67646677989433
1601, 53.0076555197802
1602, 50.30006962346715
1603, 42.43389534906737
1604, 40.02851840868925
1605, 19.854312599891273
1606, 5.394591842524733
1607, 22.84464370735668
1608, 29.043911430958815
1609, 27.06151727696897
1610, 26.259494490252564
1611, 33.889209152781405
1612, 46.96485548102919
1613, 59.1920560331605
1614, 60.02431839413293
1615, 58.75780530396605
1616, 56.952664473914865
1617, 50.49291187022709
1618, 31.43125129828968
1619, 9.475943937455213
1620, -2.614385000424136
1621, -4.562659859184805
1622, 3.726843107883724
1623, 16.956117898098
1624, 14.984308821790819
1625, 15.939260110533269
1626, 18.90404320365451
1627, 5.793411390086931
1628, -2.1838481983363636
1629, -1.3839840015493792
1630, 6.126202167711654
1631, 24.92253867928639
1632, 40.97604778661753
1633, 39.74316248873629
1634, 11.360410954712506
1635, -1.3523459676905532
1636, 9.34062264943509
1637, 17.1249066595135
1638, 32.34814347804445
1639, 43.09557112354878
1640, 35.167026015469446
1641, 39.61738005181837
1642, 39.89178300054073
1643, 24.093068677864494
1644, 5.036003108820523
1645, -7.2295559194290036
1646, -10.475726052949312
1647, -6.94820388675862
1648, 1.4157315260076757
1649, 2.361509931717592
1650, -11.636860666219718
##END=



