##NAMES=
##LOCALITY=
##RRUFFID=
##CHEMISTRY=
320, -31.838142464231623
321, -15.58337274456926
322, -2.1337329651278196
323, -0.5421068718496826
324, -3.3558525311650556
325, 1.946605302698572
326, 13.210414863218375
327, 18.97171138635622
328, 18.597295940207914
329, 16.774004086822515
330, 14.686879751076958
331, 12.55749649644713
332, 10.507437731121172
333, 10.196422119264753
334, 12.364104177869194
335, 17.688004811090195
336, 26.194406430073286
337, 36.157223603506736
338, 36.43213114747368
339, 25.540126937552486
340, 11.821374505691892
341, -0.3453959961352666
342, -5.644120135711091
343, 0.7697776025256644
344, 15.056793462968017
345, 30.346930552420872
346, 44.783337768208185
347, 57.71514200399042
348, 67.6570134872145
349, 61.31514193807334
350, 35.96545081706154
351, 12.725768142522611
352, 3.7505741915024373
353, 2.573126910593146
354, 2.7705272381649593
355, 4.542330237711667
356, 8.511501046044941
357, 12.959316081550242
358, 11.39855950507399
359, 3.55095351798127
360, -2.157023628571551
361, -3.822154151887389
362, -1.941372644684634
363, 3.4661150196711787
364, 8.589758823205102
365, 7.12585527850888
366, 2.0915154287340556
367, 2.2220136814435136
368, 7.00261014775333
369, 10.148011681117623
370, 10.897745667725758
371, 12.809534433078625
372, 17.059058588040898
373, 18.184066712396998
374, 12.419721352412125
375, 3.6864069953317085
376, -1.8820736710945312
377, -5.162350187152697
378, -7.568168330104072
379, -9.078368038897679
380, -7.8365312546343375
381, -3.6797697806591714
382, -0.8948302777953359
383, -0.804365678121485
384, -1.2468073648478821
385, -0.8089565506770668
386, 0.23416293650143416
387, 1.536471597381933
388, 1.6304331469791578
389, -3.45767359933825
390, -12.28427778934929
391, -14.611350279816179
392, -9.621616849425664
393, -5.369578389329945
394, -4.039467814274758
395, -2.251797948155854
396, 2.1084875644874046
397, 4.836721377172125
398, 0.5731900538030459
399, -7.95141042712612
400, -15.307888927077329
401, -21.13465627938467
402, -22.251943811815636
403, -18.14012027329545
404, -6.664782060136076
405, 13.419996560819072
406, 33.61568015773082
407, 47.59891427809953
408, 51.21966403700253
409, 40.700120841766875
410, 23.652568161019644
411, 16.0271273736721
412, 18.482391490038026
413, 35.07515298020917
414, 65.41492367880801
415, 90.84622486927037
416, 108.96535830416087
417, 124.36746922019029
418, 138.57001405290066
419, 148.35252897496957
420, 151.71267392066875
421, 154.32266304342102
422, 163.00162774308774
423, 172.1030165037946
424, 169.0523455215225
425, 155.7702920108486
426, 141.86344805808676
427, 127.823850820193
428, 109.51265311760017
429, 86.58439247788647
430, 70.00095095688357
431, 70.96961817694228
432, 70.79659726189038
433, 61.26582181860795
434, 45.32524183312853
435, 26.892725517778672
436, 10.432231455085457
437, -1.5344001704334005
438, -8.511404050399506
439, -4.802287539925601
440, 8.529286112155205
441, 15.36449702425216
442, 11.31402702851301
443, 2.1145958680117474
444, -9.703448204142205
445, -15.26549197676195
446, -8.30737186359329
447, 6.0214509968368475
448, 21.863216297641884
449, 39.257782398715335
450, 52.69417385031966
451, 61.9933612161708
452, 66.92096508424675
453, 67.39283814597275
454, 62.986732535144256
455, 53.78611891167793
456, 42.188944585460376
457, 29.024508583525403
458, 16.08829646059894
459, 5.997153373564743
460, -0.6126215338017573
461, -2.7835266581719225
462, -2.271321748905393
463, -1.6793717443269998
464, -1.2279892899505285
465, -1.5452376965317853
466, -2.7105899019857134
467, -4.866840778102414
468, -8.286642904341079
469, -13.798852346182684
470, -21.637596221344666
471, -23.38201641710748
472, -15.583145151180815
473, -4.606684028049585
474, 5.904855951588615
475, 14.57344571382282
476, 18.020690272343018
477, 17.653502337212558
478, 16.177205347835752
479, 12.672025893109549
480, 4.063175792536185
481, -7.2692328396419725
482, -11.095529862629519
483, -6.637457993077987
484, 2.248987110838243
485, 15.16385707872314
486, 27.038741178417695
487, 35.90613689727297
488, 37.96890749049817
489, 30.812929194713888
490, 20.27567605251852
491, 12.543316676551967
492, 10.356212270928609
493, 16.0716871294062
494, 23.76786184350476
495, 19.933841157007464
496, 6.486495779015513
497, -4.204182676604887
498, -12.322738141133414
499, -22.19428192316309
500, -34.595078271364855
501, -38.06219921518232
502, -29.158705583307437
503, -16.66923620417265
504, -4.1549775989187765
505, 5.576683457285981
506, 10.340684944994791
507, 15.310532386006344
508, 26.91849316803018
509, 46.83958173532028
510, 78.03572798246842
511, 111.47321290483524
512, 134.0246328029816
513, 145.7154541705886
514, 150.7711668787515
515, 151.2619755884798
516, 158.78593318351795
517, 175.0125878756353
518, 190.11597250021987
519, 200.65659090901136
520, 196.43046628007687
521, 172.63961807995383
522, 138.0550299876495
523, 98.9752633010221
524, 67.08160829335247
525, 62.19764318994021
526, 74.25462037956368
527, 80.66339379392048
528, 80.60441253422596
529, 72.70499132086934
530, 56.555775511280444
531, 30.879602608557434
532, 2.839461971473611
533, -6.6938484897546005
534, 2.7217648637679304
535, 11.151800695401107
536, 14.627711150244068
537, 14.97371703634417
538, 13.29577986570257
539, 13.713147284473962
540, 17.673558853517534
541, 22.21945053576428
542, 26.179328846862518
543, 28.690234674166277
544, 28.795648327291474
545, 27.61748948053446
546, 26.98029285343955
547, 26.538549994179448
548, 25.432017510735022
549, 23.84256367934222
550, 22.482735545682317
551, 21.384958285152607
552, 20.438591510124752
553, 19.240297222737354
554, 15.063660630969025
555, 7.736708488571367
556, 1.9577246099797776
557, -1.766998270516524
558, -3.859239112810883
559, -4.514490972830117
560, -2.332207932165147
561, 3.6776803569264302
562, 10.706488392400388
563, 15.821549006533587
564, 19.60501238180359
565, 22.6846943803871
566, 23.09249020358311
567, 17.837748165622088
568, 7.529940979338335
569, -5.7417214161800985
570, -19.137936709544647
571, -22.30826232093432
572, -16.512111961010305
573, -7.55263328247338
574, 3.4989150443698236
575, 10.614551288983876
576, 12.20696963870023
577, 6.879399500049658
578, -4.615085942827136
579, -10.819960616650405
580, -8.963260656544662
581, 1.5506884966284815
582, 21.530288713504888
583, 36.347324182843295
584, 38.79314938796688
585, 33.91480914222757
586, 25.078220137586868
587, 14.831292562171711
588, 5.4606349038890585
589, -1.9294524147621814
590, -7.396784689267861
591, -9.171515785989413
592, -3.677845388797323
593, 5.159404781546073
594, 8.654893504021402
595, 8.945450607987823
596, 14.133464578863368
597, 20.734666320889573
598, 14.786086466911911
599, -0.16934168254329052
600, -2.1826599430150964
601, 8.751568656547988
602, 18.31117492468502
603, 23.404133852682207
604, 27.230336615349188
605, 29.71553987574771
606, 21.815951749413216
607, 2.0021736448779848
608, -11.596968586271487
609, -13.952055835444753
610, -7.516010358004223
611, 7.081734175237216
612, 16.137610173409485
613, 11.470138584665165
614, 1.327914309978496
615, -8.238673427576032
616, -12.236352773766157
617, -5.649908790507197
618, 3.2292500021130763
619, 4.879150877947268
620, 2.9160111237924866
621, 3.3976339018436192
622, 6.245867868958612
623, 11.429235221925865
624, 17.5497994247512
625, 22.91561611718589
626, 26.114702650811523
627, 23.517400261323928
628, 16.126350437175915
629, 7.866351169445807
630, 0.2365038508669386
631, -5.905850073516376
632, -10.059314628745597
633, -8.043317906859556
634, 0.7663877204304299
635, 16.146584582279957
636, 35.75643337093334
637, 44.24446593593939
638, 39.30469573076243
639, 28.3356922438561
640, 13.858140459200513
641, 5.786771349312858
642, 5.578624379388657
643, 9.849190336638458
644, 17.63571220672611
645, 22.949610664681586
646, 23.825630147360698
647, 21.918182268813325
648, 18.06788509464741
649, 15.142319551235687
650, 14.686166730356035
651, 13.863223467377793
652, 10.860164965581134
653, 6.517509910554054
654, 2.1143696092512982
655, -2.828218382423074
656, -8.838522991448372
657, -11.044745768357188
658, -4.090690358665142
659, 3.6398290506663216
660, 2.161582668565643
661, -0.7274633883030219
662, 5.536660401226527
663, 16.743441788270047
664, 24.727316526568302
665, 28.504635051093373
666, 26.500328203424942
667, 20.798769663164876
668, 15.581143542902737
669, 8.80562870674521
670, -3.4175218133968883
671, -15.164763369125922
672, -9.558168480101358
673, 6.234562929651474
674, 10.335063710048416
675, 6.846257561577659
676, 14.828233428168005
677, 28.183225213536844
678, 24.62588456443018
679, 7.922824213599597
680, -0.7200082979293256
681, -2.7398393111307087
682, -8.265253099232723
683, -15.63818902976709
684, -11.243407270314947
685, 4.763172748359466
686, 22.952000722870707
687, 39.05531011264475
688, 40.80479262175322
689, 28.999637161445207
690, 18.273437791397555
691, 11.352024348282157
692, 11.933486325759986
693, 19.14074965029613
694, 22.635302407210474
695, 20.79452813971784
696, 14.068764323301366
697, 3.575665836859116
698, -2.399079408362468
699, -3.0324423413762815
700, -0.3980612469895277
701, 4.455755560381476
702, 4.396728250864271
703, -1.1620917447949068
704, -1.5209642159056784
705, 5.7217831401503645
706, 18.07031764380463
707, 35.42531908506817
708, 50.660718473916404
709, 62.18321345461163
710, 68.03631857604205
711, 67.2616502647038
712, 55.05105722460439
713, 31.118834490237077
714, 8.255528473666345
715, -8.340269748674018
716, -12.279531129962834
717, -1.8890296049212338
718, 19.84708884893689
719, 51.82690472982404
720, 65.56732819438093
721, 54.1467064506719
722, 32.846085919072266
723, 7.758273200300664
724, -2.170069365642121
725, 6.645811045511891
726, 21.364254215766778
727, 35.99500212860676
728, 36.502917714258274
729, 19.76480535713108
730, 1.3675830795905313
731, -13.326243477830758
732, -20.06483203243488
733, -18.098165237341618
734, -11.012116895969939
735, 0.23666728732177944
736, 10.294081909873967
737, 17.444168208678548
738, 24.012954499501575
739, 29.739883584071322
740, 24.378182041607943
741, 6.884690721669358
742, -3.0194102984801248
743, -2.267172550116811
744, -1.354744149409271
745, -2.5055965516207834
746, -1.8348505344356454
747, 0.9255847664639987
748, -1.0423573046577985
749, -7.348859095490752
750, 0.4394141878769915
751, 23.992175069473888
752, 36.482252131394034
753, 34.07327020529283
754, 30.511989695591637
755, 26.80476212930671
756, 11.02326302315987
757, -12.740511379714917
758, -13.904830398020295
759, 6.8642431324974496
760, 14.888811783950587
761, 7.088665799904902
762, 2.5107723047203763
763, 2.8621250853002493
764, 1.4109068267266593
765, 0.058190589566493145
766, 12.072902589843125
767, 32.373190805912145
768, 33.15163606221449
769, 17.090798271975473
770, 5.816825746882387
771, 1.5882428288523442
772, 2.567573357369838
773, 7.922000894143366
774, 15.648626266155588
775, 22.415251716938656
776, 21.54969922429109
777, 15.423154228441035
778, 11.131048030005786
779, 6.541006345599726
780, -3.405962375643412
781, -14.124338195222208
782, -14.738822442117453
783, -8.558134533602697
784, -1.5779983091333634
785, 6.446795693813328
786, 15.812313599952176
787, 20.636453446132236
788, 13.433417602507234
789, 2.4302017937043274
790, -1.7738137817218558
791, 0.05618500826540185
792, 7.697584184486914
793, 22.543842840221714
794, 46.62296966652957
795, 66.10811006385893
796, 71.85194990277205
797, 67.94464319207054
798, 57.213381205420774
799, 41.933073503480955
800, 23.691206260798026
801, 14.156985711866128
802, 16.699465718986175
803, 22.52730095776451
804, 26.144967124682353
805, 29.04325644146502
806, 31.16199795723196
807, 24.308467613719586
808, 7.7760093575279825
809, 1.6886753891371882
810, 9.234739580866062
811, 20.30461310120836
812, 30.736172067259304
813, 35.03103743406655
814, 32.100812971826144
815, 21.49075572773654
816, 5.800502999903529
817, -2.6969120533590285
818, -5.735626943173884
819, -11.761486638689348
820, -16.46000758710943
821, -3.474287965862004
822, 20.63577900660539
823, 34.17958436475601
824, 37.947959221277415
825, 35.57150754720442
826, 23.90154014934069
827, -2.4110609601120814
828, -24.820676124504644
829, -20.542135553715525
830, -6.1593574353701115
831, 1.7373145475685305
832, 5.188513732100091
833, 5.679065200984041
834, 13.123848592736067
835, 34.33535724365538
836, 51.768079792815115
837, 57.09499541204923
838, 54.1110425859938
839, 44.90927628881218
840, 36.9889315655214
841, 32.942274287423515
842, 33.76494221096027
843, 37.94718202832564
844, 32.30631496748765
845, 16.074098716712797
846, 1.5552748461500414
847, -7.485443755499091
848, 3.2269014557632545
849, 28.530615769080214
850, 41.90802491852946
851, 44.132948685009524
852, 42.44491283384741
853, 36.52330508260275
854, 25.016731605273435
855, 14.578475444174273
856, 16.840633731369962
857, 20.934059628479645
858, 15.965195057577603
859, 5.653373082157941
860, -6.186360137212432
861, -12.735619643747214
862, -9.733741423428
863, -1.3569238786108144
864, 10.59025692293335
865, 17.582186180342433
866, 17.00436896528072
867, 14.474220054791203
868, 11.81859729766984
869, 11.226374730834777
870, 11.509856145196409
871, 4.2736921580303715
872, -7.172173966569062
873, -8.632434413631017
874, -1.1535567548990002
875, 9.429537952542432
876, 18.945281407508446
877, 19.37885642541687
878, 14.497625232483642
879, 10.331279807174724
880, 6.81323614771145
881, 4.483109822041115
882, 1.9139958210148507
883, -2.023212035290271
884, -6.449256466859424
885, -10.528019326324738
886, -2.7453747845979706
887, 20.445381667507718
888, 37.36738800142666
889, 42.56516390364504
890, 41.541792133180024
891, 36.328192979493906
892, 31.50945199227226
893, 27.86266753301652
894, 25.94025371031421
895, 23.148109435391234
896, 13.049824497327336
897, 0.8680335884137094
898, -7.356847782518344
899, -8.091444592947028
900, 3.604573096171862
901, 17.372285409506276
902, 23.65066063074164
903, 24.146313527320217
904, 19.92712960559038
905, 13.44998652665663
906, 6.20482086168704
907, 4.503290275067229
908, 8.088299011483741
909, 6.233474418148035
910, 1.1252385160105405
911, 6.5984992825760855
912, 19.64797437828247
913, 24.78979806363077
914, 22.289280821375996
915, 14.486494471826518
916, 4.293629693213006
917, -4.081698075563963
918, -7.3347756815132925
919, -2.362851039970792
920, 6.133493382947563
921, 15.513508638043277
922, 14.723812263154741
923, 2.180592734957372
924, 1.5543970268645353
925, 15.33859904746032
926, 23.478211160681894
927, 24.84031686921162
928, 27.31458271218844
929, 30.728448785037017
930, 32.787065330355745
931, 33.87480303821576
932, 34.795248722761244
933, 31.280794033773418
934, 18.95853681335302
935, 4.7898884301548605
936, -5.761703026240866
937, -3.2868126186053814
938, 14.359874221503105
939, 19.5421505393183
940, 7.643222800750664
941, -1.4796082919133369
942, -4.5752191761635
943, 1.4169017049171089
944, 15.216316063572776
945, 31.279849819233277
946, 40.08159727778548
947, 27.143552201943294
948, 8.816320462377007
949, 1.7729396287863892
950, 8.930954002077215
951, 31.848767307764774
952, 46.62723569326454
953, 45.86492318109367
954, 39.27034133781808
955, 29.38021841566706
956, 17.645250283280348
957, 6.674288076283574
958, 4.426587734290024
959, 5.867471978560843
960, 1.1338900530981846
961, -0.5575208343011582
962, 11.8054065364704
963, 21.192522970407026
964, 16.569992222609017
965, 7.644135393330089
966, -1.3481564674939364
967, -8.200395667825433
968, -11.670404597716242
969, -5.098004544616742
970, 7.5895216659464495
971, 9.555053475088243
972, 5.743828770053369
973, 7.789752311939537
974, 9.553531442497388
975, 4.017278460783018
976, -2.008239483093348
977, -5.23277773083737
978, -9.17960861288202
979, -13.630634700773953
980, -3.8345029829151827
981, 18.507748987014566
982, 26.3795199392448
983, 21.050611765838312
984, 14.630807536772863
985, 7.438762408080493
986, -0.27564568044772386
987, -2.7478009645465136
988, 5.087498193588544
989, 11.916338737205933
990, 11.696449515198765
991, 9.887557924841985
992, 8.882600298576563
993, 14.266694132948942
994, 22.676723542863783
995, 23.71721890302979
996, 17.05699876625613
997, 3.546109915310808
998, -5.9479330607910015
999, -1.674854317979225
1000, 9.919411429405955
1001, 25.316789693932606
1002, 32.41764662948617
1003, 29.014641099084656
1004, 23.933506443989245
1005, 19.163919060467833
1006, 16.16627209692524
1007, 10.813608282664973
1008, -4.045796060804605
1009, -18.20356402418065
1010, -20.459347064095255
1011, -6.8002642537262545
1012, 24.40682617287075
1013, 45.30831195232258
1014, 47.49940503732478
1015, 34.331238589106306
1016, 14.630037146770064
1017, 16.20117591994358
1018, 33.04582535352756
1019, 49.26642998039779
1020, 61.37172327503595
1021, 66.28695756087882
1022, 60.141084472521925
1023, 42.67815544191717
1024, 30.900520600837353
1025, 26.50529814067295
1026, 15.798276958349106
1027, 6.0000079948581515
1028, 15.395806779338272
1029, 28.990370010055358
1030, 21.992254775027504
1031, 9.558156172450254
1032, 3.01547175673295
1033, -3.01147399868114
1034, -7.760045888427612
1035, 9.96891795899819
1036, 45.54881785390626
1037, 61.462397431415866
1038, 57.90627871279594
1039, 40.89344451877105
1040, 15.793306995610692
1041, -10.382518554772105
1042, -21.16640717135124
1043, -12.092058847990302
1044, -13.170522695540967
1045, -25.841093655290024
1046, -25.250919555209748
1047, -14.267898351806707
1048, -4.582222125653971
1049, 6.289582776943007
1050, 20.50709922029955
1051, 18.25071337798181
1052, -7.692786433277888
1053, -20.69349963025479
1054, -14.938340921495637
1055, -4.786711822848702
1056, 2.02080891005744
1057, -10.028099410424147
1058, -24.88021962372386
1059, -23.19005589275912
1060, -20.39838688469672
1061, -24.150496496436517
1062, -25.099709798550975
1063, -22.689097945411504
1064, -26.641536387720407
1065, -27.852064687267102
1066, -1.1633089264701084
1067, 35.78656964517677
1068, 62.685579965565466
1069, 96.30929744495916
1070, 148.2323433780225
1071, 230.55499873150666
1072, 326.3931314042852
1073, 419.05943583685394
1074, 501.42643491860554
1075, 562.5431256169809
1076, 604.9526598822499
1077, 631.1278012057064
1078, 629.7427718147401
1079, 596.459517442905
1080, 538.7232155976699
1081, 463.01777199513845
1082, 386.695315222933
1083, 316.9936112618143
1084, 263.6467986209336
1085, 208.7656774413722
1086, 139.04984005009283
1087, 80.37900979367305
1088, 33.3224552950187
1089, 5.433286119070544
1090, -5.987458748515564
1091, -7.370422990082716
1092, -6.871381188323994
1093, -14.088585096121733
1094, -21.79666361178215
1095, -26.113042118943667
1096, -25.558099760480218
1097, -22.059581828489627
1098, -25.39901258172904
1099, -32.57746801430585
1100, -35.9568831181773
1101, -26.63126551188998
1102, 1.8589260954131532
1103, 17.27472266311952
1104, 9.397961238600146
1105, -3.5421585398676143
1106, -15.908716041610205
1107, -21.145877197442587
1108, -14.593729113847985
1109, 9.096637004109198
1110, 19.91924067777518
1111, 5.9510479716082045
1112, -1.0988808035144757
1113, 2.4733415455275463
1114, 5.883101506477033
1115, 7.029840048580354
1116, 4.5631407338273675
1117, 4.989699604392172
1118, 11.5773390959057
1119, 16.914922146664594
1120, 19.5686301586602
1121, 21.6758224027476
1122, 18.431505756744627
1123, 0.6629457443264073
1124, -11.511513409442614
1125, -5.35149848395713
1126, -0.6089858145242033
1127, -1.613705994735028
1128, 0.9166888646996085
1129, 4.901633870500518
1130, 2.7720274503440123
1131, 4.156450529534595
1132, 16.262662530974467
1133, 18.530611006000527
1134, 6.701882966119683
1135, -2.046585897237037
1136, -5.524260423328087
1137, -2.680735460681717
1138, 5.327750156286584
1139, 17.967982798826597
1140, 36.98421979645627
1141, 59.0226510742782
1142, 74.52993871494937
1143, 80.60265549189626
1144, 73.96587841350538
1145, 52.104378710123456
1146, 14.605778023152197
1147, -5.353167607403975
1148, -2.132912738012692
1149, 2.693984084537533
1150, 3.4437306802333296
1151, -6.172544559033668
1152, -12.111545371645207
1153, -2.831231325017143
1154, 11.860134203216148
1155, 27.547991765707593
1156, 32.58460867582335
1157, 28.78586239674405
1158, 22.300272153543574
1159, 19.075480524580144
1160, 22.776760368669784
1161, 25.930250455341138
1162, 22.996612912776072
1163, 0.615103908443416
1164, -22.2053935905883
1165, -15.078118871674633
1166, -6.008553042201584
1167, -9.127330744609026
1168, 0.4694632281907616
1169, 19.541008031929323
1170, 14.515289987381038
1171, 4.753824808113677
1172, 17.83977618819381
1173, 22.360316944877013
1174, 7.722956717389479
1175, 2.6723863151728438
1176, 8.8949072802302
1177, 19.724227832782162
1178, 37.524001846949886
1179, 60.58410868305418
1180, 68.48554209586382
1181, 59.298312588276076
1182, 57.501242402694515
1183, 62.41447040558023
1184, 67.26802049734033
1185, 63.10254362428668
1186, 45.35958082675461
1187, 24.13478657668975
1188, 6.543273330162265
1189, -2.185554940214388
1190, -7.271147807621219
1191, -14.710358055894176
1192, -19.513400988535523
1193, -17.631634895506977
1194, 2.6629128800886974
1195, 33.99381996574721
1196, 53.28767563641986
1197, 50.498467975712174
1198, 21.809450941229898
1199, -2.3613273763580764
1200, -12.734928787114313
1201, -5.7216410206597175
1202, 10.839743388929037
1203, 27.42354341150576
1204, 35.785788557342585
1205, 36.36673610473963
1206, 48.04418639417918
1207, 63.850523513111966
1208, 64.7418348110009
1209, 49.19100990655761
1210, 19.453920245160134
1211, 4.437252738473035
1212, 6.730028083111847
1213, 19.47364101255198
1214, 26.609294008168035
1215, 13.931691745870921
1216, 3.9758074476226284
1217, 4.869828785434493
1218, 23.26765711068083
1219, 44.0271978877704
1220, 43.59947904660794
1221, 33.247149593602444
1222, 19.273994449039037
1223, 4.049460549954347
1224, -8.285909466364956
1225, -11.808609504741526
1226, -13.17948288837988
1227, -15.787553016163656
1228, -5.756474974215962
1229, 12.479842810321315
1230, 13.031591465024576
1231, 0.05189433883788297
1232, -18.836914188406354
1233, -18.91796975809075
1234, 2.6367052701966713
1235, 24.353696943285286
1236, 35.130658161902375
1237, 24.170932604425616
1238, 3.1006712060998325
1239, -16.566379471511027
1240, -5.843200693868766
1241, 19.62827558130948
1242, 25.24760612687396
1243, 18.471713791873754
1244, 6.431316892425457
1245, 7.82407294815539
1246, 22.403225254638073
1247, 41.8372020875654
1248, 45.54664299999149
1249, 24.769711023344826
1250, 13.698941311620729
1251, 17.219440238886364
1252, 26.509514491343907
1253, 31.185165694206717
1254, 25.435875172650867
1255, 13.281837704746522
1256, 3.8805549430840074
1257, 14.992908610905033
1258, 29.37518705568209
1259, 30.157944113146186
1260, 31.950860596669827
1261, 39.79644731418648
1262, 56.677805155688475
1263, 67.97817508193293
1264, 60.407694423443445
1265, 43.11334839447545
1266, 23.311540268358385
1267, 17.75614264880187
1268, 25.116046740131424
1269, 39.850114075559304
1270, 36.84043998408515
1271, 15.844051369150748
1272, 3.7694212482697367
1273, 1.9806586925919873
1274, 9.867737363966171
1275, 14.683558690305745
1276, 14.542966689629338
1277, 22.123940283364846
1278, 32.165361080410094
1279, 39.50333635432116
1280, 39.12506096207744
1281, 27.280222501978187
1282, -3.1043067431469353
1283, -17.76951471968141
1284, 12.225557809093061
1285, 48.20410172827815
1286, 71.19630056048027
1287, 64.44238776694237
1288, 38.472265641176364
1289, 6.222074362395688
1290, -4.236422210672117
1291, 2.188973751089634
1292, -4.2490145943475
1293, -12.284109440817247
1294, -10.890268808811925
1295, 10.168843938876307
1296, 41.89799221037356
1297, 51.073074734512375
1298, 37.326715975355455
1299, 5.828987877684085
1300, -10.362696552488615
1301, -11.197359900982065
1302, -6.587794603263319
1303, -0.7633831578659738
1304, 5.15789724600927
1305, 16.330795812668384
1306, 30.668116797607127
1307, 43.882311267694604
1308, 43.28000157306042
1309, 26.586263770764617
1310, 9.837433009251527
1311, -0.40677628231060226
1312, -0.950294170410416
1313, -0.6415349759085984
1314, -2.7058804538578443
1315, -7.5869391722726505
1316, -9.272235837485368
1317, -2.855968411662161
1318, -2.2066191884377986
1319, -6.322588744912537
1320, -2.6871602242126755
1321, -0.22264438464344494
1322, -1.7083497099170017
1323, 22.13414973135832
1324, 52.25538236070088
1325, 41.27406176775321
1326, 26.127433628636027
1327, 21.992999187071746
1328, 8.04791452374684
1329, -1.9842997758960337
1330, 10.412835337079287
1331, 18.115641874348057
1332, 16.98500156833461
1333, 30.47023623056066
1334, 36.69927106392879
1335, 17.2746659874133
1336, -4.477671460449528
1337, -18.549384225720132
1338, -15.571313797388939
1339, 2.257723724340849
1340, 28.81830456954731
1341, 30.224006969260245
1342, 14.176951640395146
1343, -0.739316385656366
1344, -8.655037970550438
1345, -7.753788172148234
1346, 3.6233551745658588
1347, 11.970985029286112
1348, 6.445388827768056
1349, 5.1838349906488475
1350, 6.123218393437128
1351, -3.6085588681612535
1352, 0.22642809153512644
1353, 22.701866931069617
1354, 25.321137988771625
1355, 21.25439665532076
1356, 29.727108869860785
1357, 22.90180131765146
1358, 4.838770567389474
1359, 8.680871190055768
1360, 18.05081503602787
1361, 21.28320951241858
1362, 25.715519088862948
1363, 24.401447737095623
1364, 6.930876153727695
1365, 3.271336536050967
1366, 14.085064032643004
1367, 8.987304288971245
1368, -2.104716637450565
1369, -10.11430895917556
1370, -15.388483107456523
1371, -10.255917179184962
1372, 17.216301971645862
1373, 22.934231539972643
1374, 2.7130355800550205
1375, 4.025600610213132
1376, 14.632159728498664
1377, 21.536952710731384
1378, 29.61224075084965
1379, 29.33146534354273
1380, 4.749489002761038
1381, 1.3071259941552853
1382, 23.39122230076282
1383, 25.47106266533956
1384, 17.240466001853747
1385, 9.479119437498866
1386, 4.37002794060345
1387, 6.407033323205269
1388, 22.26175444254659
1389, 29.018736961258583
1390, 20.756866125951547
1391, 4.9186549666524115
1392, -4.68453386951569
1393, -2.949185639222378
1394, -6.882885651091783
1395, -7.645170522870558
1396, 10.002874112740301
1397, 30.204888319472502
1398, 42.37935730132858
1399, 36.56612471903054
1400, 21.32778316685699
1401, 6.469784248759424
1402, 14.104219742971509
1403, 35.25823232576613
1404, 53.483895268813285
1405, 51.7102873160311
1406, 32.22576253905936
1407, 8.16501624348166
1408, -0.3816475612343311
1409, 8.778521504160835
1410, 19.902331335880717
1411, 27.925641414757592
1412, 30.053252153172707
1413, 22.164117695464483
1414, 11.435411110862788
1415, 8.235882615405899
1416, -1.6958574591280922
1417, -10.48411785637063
1418, 9.11361428689088
1419, 34.089115535429755
1420, 47.01258874094037
1421, 33.189218056596474
1422, 7.513135841908024
1423, -13.08042458264481
1424, -10.640725714048585
1425, 6.4564009717933
1426, 22.007180487196365
1427, 18.97329039739816
1428, 3.9156600633186827
1429, 1.805500492691408
1430, 8.082002133995047
1431, 20.02289277433465
1432, 33.49758242876669
1433, 39.06192892904528
1434, 32.480776961599986
1435, 26.83754185150974
1436, 19.45292331715018
1437, 6.030407823263886
1438, -2.1510617736676068
1439, -5.910580694192959
1440, -10.054345949156868
1441, -10.099965393326784
1442, -7.008198319107123
1443, -7.687893453126435
1444, 3.1649289209794915
1445, 29.26872612828174
1446, 46.23969276492289
1447, 46.360044811592616
1448, 28.175442997759546
1449, 8.547046541925738
1450, -4.134213954926054
1451, -6.471794184913051
1452, -9.58084153179243
1453, -10.725541720089495
1454, -0.3355419218287352
1455, 13.35538689767418
1456, 22.628793926858634
1457, 16.90663161439352
1458, 9.687199612601034
1459, 11.590324613638586
1460, 32.09183620938529
1461, 44.40383364830541
1462, 32.019113472502795
1463, 1.906853047731147
1464, -18.632653605178348
1465, -10.46718938582353
1466, 3.075521613706769
1467, 9.734914633137578
1468, -0.7968657795654508
1469, -9.799239530856994
1470, -6.337490247296046
1471, 19.94061789652551
1472, 35.636296281892555
1473, 31.14438572807012
1474, 11.980585261523174
1475, 13.961588833413316
1476, 38.2028090488393
1477, 43.20826288387207
1478, 33.07949696998003
1479, 15.41605180583656
1480, 6.40637738405394
1481, 15.752488189714313
1482, 41.698315815626756
1483, 40.689890281680164
1484, 21.071842995767383
1485, -0.8192444961509864
1486, 1.3837412822708757
1487, 14.621225465771204
1488, 19.45613060136975
1489, 14.515186876813459
1490, 2.250226257830036
1491, -10.530832494458991
1492, 2.2994977791481688
1493, 27.947515831735473
1494, 33.18199221700934
1495, 19.06155820642789
1496, -4.7527622452453215
1497, -20.521399297510925
1498, -15.160260613763057
1499, 3.786869975998343
1500, 10.78990897120184
1501, 12.412030554605735
1502, 11.940432686871645
1503, 10.043635766911393
1504, 8.684616215915412
1505, 10.126040163395373
1506, 16.1134966737618
1507, 28.569877922963315
1508, 39.83455780293343
1509, 23.096519261885987
1510, 9.645763846504906
1511, 11.036602579435794
1512, 2.753102461426579
1513, -4.123601716114763
1514, -6.335786206005423
1515, -16.055721811024796
1516, -11.36318028446658
1517, 12.687866767246078
1518, 17.53661071592228
1519, 9.288480183474348
1520, -1.796274827792331
1521, -1.1175478201244005
1522, 4.273999265529483
1523, 9.413594670919792
1524, 16.57352919317441
1525, 28.165501456682478
1526, 41.24477882791598
1527, 34.03379138424043
1528, 16.213630815977922
1529, -1.5826560185121252
1530, -10.902025755998466
1531, -7.242844369536215
1532, 7.492422084573263
1533, 11.968279673147663
1534, 15.090503737871131
1535, 22.545745602032184
1536, 22.68290916369733
1537, 10.563699330773261
1538, -10.082594625023376
1539, -15.679527316598524
1540, -6.7806947464164296
1541, 11.156703576596556
1542, 21.01444399344632
1543, 17.331048686044824
1544, 2.6611130907911047
1545, -5.62353416725864
1546, -3.875956954475896
1547, 7.617447876061078
1548, 22.866547597737735
1549, 35.36267285014992
1550, 42.22409215921607
1551, 42.680575758921805
1552, 28.924110189817384
1553, 5.521789460041873
1554, -5.166549096253675
1555, -6.526508970064697
1556, -1.7259373494584906
1557, 5.168499841906396
1558, -1.5481199310302145
1559, -15.914236687973244
1560, -15.196220522886506
1561, -8.031549631055896
1562, -2.9628133009155135
1563, -9.953108422806508
1564, -22.858972827154957
1565, -38.65281006166242
1566, -52.069286800449845
1567, -36.07321017236245
1568, -10.181114825541044
1569, -2.992761166031869
1570, 12.918372996760809
1571, 24.750956284742188
1572, 23.57035375330861
1573, 63.52399484853004
1574, 118.42361662910207
1575, 169.14503368439955
1576, 233.40722009170804
1577, 299.42383414398273
1578, 358.1911279753258
1579, 412.60075988882954
1580, 452.27239989596364
1581, 469.20910558716923
1582, 457.2380659768305
1583, 430.79018104300394
1584, 397.48347867575103
1585, 360.0028792680673
1586, 308.149220949374
1587, 235.03058769349673
1588, 138.21151036043148
1589, 63.2598635517279
1590, 21.57242308369632
1591, 15.35744763239154
1592, -2.476451098569214
1593, -21.46845164788374
1594, -26.27624452425607
1595, -20.131462669350185
1596, -0.6182517000247572
1597, 22.382274389114173
1598, 7.523733195440855
1599, -9.320309517615442
1600, -16.377851975912563
1601, -23.647512729917707
1602, -22.412293550200047
1603, -15.458069680139033
1604, -11.854965558225558
1605, -6.586782076162308
1606, -1.6218431874758608
1607, -0.23201928838625463
1608, -0.09245106569505879
1609, 1.0264439076727285
1610, 3.7593396498500624
1611, 4.573508680645546
1612, 2.019269251521564
1613, 1.0043599820398867
1614, 13.556446347007522
1615, 19.321187526658832
1616, 13.873707196239366
1617, 2.5034318521950354
1618, -11.133790808821004
1619, -10.238309664356848
1620, 16.614690768163655
1621, 30.285124589351426
1622, 28.727339662802024
1623, 17.987716617598608
1624, 9.306316693493045
1625, -2.9651681048053433
1626, -13.897853652562162
1627, -6.282680789501683
1628, 4.955980745786292
1629, 21.883299055971975
1630, 45.480157991336455
1631, 41.61598137005262
1632, 30.351587088174938
1633, 26.482158932937637
1634, 12.169643614485494
1635, -6.000103550707081
1636, -16.81954996534023
1637, -2.306074444304386
1638, 14.420143838885224
1639, 23.67348614531147
1640, 22.075523454992663
1641, 29.935579102569818
1642, 45.67868388607326
1643, 58.39187519430061
1644, 44.05118168339254
1645, 8.761458082823765
1646, -22.352557797168856
1647, -15.808505895261078
1648, -1.9224465186191537
1649, 3.62542695561865
1650, -4.314837863948242
##END=



