##NAMES=
##LOCALITY=
##RRUFFID=
##CHEMISTRY=
320, -9.58873394889497
321, -6.902588237043801
322, -2.123654168290159
323, 1.762984720854547
324, 5.374115437024557
325, 8.932349073574642
326, 11.523594282968133
327, 9.595924942700094
328, 3.582597492979403
329, 1.4508711909452359
330, 4.886599993119489
331, 13.433206678866554
332, 27.50426755123908
333, 43.76934427953529
334, 59.714247033273296
335, 73.54130095709206
336, 80.32016619558681
337, 81.27752490928424
338, 85.77727534331507
339, 95.04283882694335
340, 101.69905466225373
341, 102.93774745337441
342, 100.80636861001449
343, 96.98960450702134
344, 91.20220180216165
345, 82.91599335017236
346, 74.96802660106641
347, 78.50349590956921
348, 93.37183890005053
349, 107.60336621022589
350, 118.24195459111615
351, 124.61973598804616
352, 126.392591268062
353, 120.33062441084121
354, 102.77693787609587
355, 82.1662882092869
356, 78.73955359828733
357, 89.72068195367865
358, 96.6185670050113
359, 96.57911995632003
360, 85.90361350878175
361, 63.57646036588358
362, 38.97737977432462
363, 17.999546906316027
364, 3.4798789024034704
365, -4.613941692716253
366, -7.107589648918747
367, -4.302964370022437
368, 2.4145303486147895
369, 3.938389283509423
370, -0.377925845783011
371, 1.4645064093556357
372, 13.83621369005732
373, 26.90294589160203
374, 33.98764477191526
375, 37.35654772484122
376, 40.34225251909584
377, 42.99047194817604
378, 45.34824109056808
379, 46.8786704412496
380, 44.317743696548405
381, 37.24516635251075
382, 27.673064335197523
383, 16.334768318177794
384, 7.614732868790725
385, 4.481641770546958
386, 2.7308593901611857
387, -3.3043912912930864
388, -11.021135267954378
389, -12.234917978838894
390, -8.170395152688798
391, -7.340137506253541
392, -10.431175831896326
393, -9.937522927100872
394, -3.5118892921200313
395, 0.9236541201071304
396, -1.29783651337857
397, -5.228757290050908
398, -5.0093595088669645
399, -2.4172065557327187
400, -1.434006168565702
401, -1.6756259557910198
402, -1.1026276709112608
403, 1.0956724370971642
404, 10.011695494502874
405, 27.60508686057483
406, 50.59276282972496
407, 73.82473277412419
408, 97.87404047118025
409, 123.26233206756206
410, 146.8909211989203
411, 163.23066735637622
412, 175.0340151639234
413, 191.75760038329145
414, 212.85814265440695
415, 230.02873286399927
416, 242.08673391369257
417, 253.63947907611418
418, 266.1818049710596
419, 274.4936175995135
420, 275.32929647897754
421, 273.5499892423677
422, 274.9997637556671
423, 276.3342247071814
424, 270.0973183070346
425, 257.0494291958471
426, 241.35945907497444
427, 223.85030281518357
428, 207.56385695981635
429, 193.2182639281
430, 182.0824736863933
431, 174.64032818216583
432, 169.1290690878359
433, 164.3100565231348
434, 156.03507504461277
435, 138.79108626940842
436, 114.35132138652989
437, 86.99085983682107
438, 58.222546013715146
439, 33.65829628946949
440, 17.41532000494817
441, 8.785554539471377
442, 7.1735745075320665
443, 13.854555619037455
444, 29.954778657828683
445, 42.821468076677775
446, 44.81774333116846
447, 44.05983962010123
448, 50.670395690617624
449, 59.63831981614976
450, 59.951395032906476
451, 54.193680090759244
452, 53.54080610891242
453, 58.03376079871168
454, 60.62389462329202
455, 60.24974909606499
456, 60.894797025092885
457, 63.835012445598295
458, 66.86164811825665
459, 68.7352334741322
460, 63.937664391268754
461, 47.03902939971795
462, 27.097566816203198
463, 19.74423120251913
464, 19.17004997024469
465, 7.806789461677454
466, -10.22829817230604
467, -14.901886158525485
468, -6.033447176913796
469, -3.5972128217836143
470, -11.503723791360244
471, -12.163838767922698
472, 1.5680001498517413
473, 14.243330124056229
474, 14.537891702037541
475, 8.167732172296382
476, 1.6917281591104256
477, -4.11131139670033
478, -8.174446784179963
479, -9.971508890730092
480, -6.8814762282295305
481, 0.23600920532589953
482, 4.983735972551585
483, 6.205739970285322
484, 2.809034370876361
485, -4.481422828861469
486, -1.7173465398441294
487, 17.003867584724503
488, 35.54674348934077
489, 43.54312475456936
490, 45.115179275142964
491, 44.631307742925856
492, 42.672931733856785
493, 40.247357350448056
494, 37.51991672701024
495, 34.89423649432865
496, 31.578760909404537
497, 24.022786616588746
498, 12.708969404263826
499, 4.184832663587713
500, 0.12387637349092984
501, -0.6881992224111855
502, 1.2886975198407526
503, 2.0378822723764642
504, -0.4121975890629983
505, 5.0027113805704175
506, 27.62844217474867
507, 58.24371029454096
508, 79.54581326196194
509, 97.09072311090176
510, 121.90506494414194
511, 151.34630311816
512, 176.601108558134
513, 199.06113235377552
514, 227.9421293059986
515, 260.93252116036047
516, 271.86367548891303
517, 258.1651701694632
518, 258.33204757321255
519, 283.7506168090017
520, 308.7806362473916
521, 321.22708795032895
522, 322.0860397304323
523, 312.07278127517566
524, 290.87405582080237
525, 258.138422373323
526, 227.4271266914575
527, 221.88812011843083
528, 232.4059835608009
529, 234.9963608156272
530, 226.5699735122571
531, 199.95630960471408
532, 159.20163507808957
533, 130.96484754513858
534, 117.97562380652653
535, 107.17475663495316
536, 95.57942388124002
537, 85.46292071908101
538, 77.40270757462031
539, 63.18187877056107
540, 38.7524065948096
541, 29.495485498615835
542, 50.34468485640673
543, 76.93025019638071
544, 85.54378900650363
545, 83.04791459763237
546, 80.62201167893545
547, 75.67157166420293
548, 61.818469774290406
549, 43.14581641276118
550, 33.93032045302971
551, 32.51861965235821
552, 25.8183763239349
553, 13.859118395516816
554, 10.021966260041609
555, 15.579289259658708
556, 22.221977338104352
557, 27.62341062002679
558, 25.809070674472423
559, 14.675354576003429
560, 3.5866876889772357
561, -2.050833993161632
562, -0.3714893745354857
563, 10.622188987320442
564, 23.931468256815606
565, 31.968403376033166
566, 32.17805888222392
567, 20.682568026931676
568, 3.9735157914014962
569, -4.32557821417322
570, -5.82104593755912
571, -5.191055886052254
572, -3.6886920353290407
573, -5.183663847534717
574, -8.561627728771782
575, -5.270115871094731
576, 4.55318249462789
577, 7.855850782883408
578, 2.622036375483276
579, -1.932854078641867
580, -3.443935397983296
581, -2.9780014751831914
582, -0.7792968833841769
583, 5.362649655772202
584, 16.434505824352073
585, 23.341673093443205
586, 20.026143261789457
587, 11.944124320670653
588, 3.9922612000327717
589, -2.971701654266326
590, -8.197757821261348
591, -10.616002319497511
592, -7.887561732822178
593, -0.9690361256707547
594, 8.154778942316625
595, 18.114231391447902
596, 25.13427450756035
597, 27.875408166505167
598, 22.359286309578238
599, 10.22396058903496
600, 0.6242763805944378
601, -4.878319364242543
602, -4.665881353061195
603, 1.6899509092595508
604, 15.157230088749657
605, 34.16340394727786
606, 41.67347018381088
607, 33.67544135164462
608, 24.56275967253532
609, 19.343146628276372
610, 12.775024559108715
611, 2.6131968602421694
612, -3.643940497620406
613, -2.5477071553036694
614, -1.0550856194936387
615, -4.078575408968845
616, -2.967051467051533
617, 10.541163584157403
618, 25.423353973748817
619, 28.513910045644934
620, 26.443329153757986
621, 28.908451088004767
622, 31.59395165045089
623, 26.573451050991025
624, 17.430407729652416
625, 12.426791105005123
626, 9.49351341620877
627, 2.2735676735510424
628, -4.747710548982923
629, 2.762375466469166
630, 21.596260016565793
631, 31.13431317431059
632, 31.543749695334554
633, 33.79261828553763
634, 37.818757864597046
635, 34.62474977853435
636, 23.989846688445596
637, 15.246720239259957
638, 10.065199162279896
639, 6.432994472342216
640, 3.8909949236031025
641, 3.202425971808225
642, 4.336091176316586
643, 6.293911426985687
644, 8.330307233399708
645, 11.94193613817697
646, 17.645806787365927
647, 22.768538921824984
648, 26.003826728421245
649, 25.210680669191333
650, 19.229190467346143
651, 9.614090445180409
652, -2.583836615666314
653, -7.0969916600543
654, 3.460119662237048
655, 16.113962326962337
656, 18.29475933710819
657, 20.349507648978033
658, 32.82089800777112
659, 46.129040281000016
660, 48.923707353405916
661, 44.38343211859956
662, 36.866643755955465
663, 26.765601582134877
664, 14.650580822673419
665, 5.619109287170431
666, 9.18497066561622
667, 18.89087286613494
668, 22.745990423114563
669, 21.04206087270495
670, 15.14198248242974
671, 7.273152205537372
672, 2.808352295200166
673, 2.4994662838557815
674, 6.92260497475263
675, 14.489164478038674
676, 21.040229691593595
677, 24.791014576759608
678, 20.730695687940624
679, 9.803587089333632
680, -3.042547564123197
681, -14.743692826911229
682, -14.756359430778957
683, -2.848050047345623
684, 17.780794277618497
685, 42.89859425560371
686, 53.27568202075645
687, 48.71448109903622
688, 41.40447406521707
689, 33.45860105844804
690, 26.873015871616644
691, 23.142408662438356
692, 29.53555573549602
693, 43.9631199841574
694, 44.23277655876791
695, 29.55638740407585
696, 23.619511885912743
697, 28.60137550029549
698, 25.28941509694596
699, 12.145689367522664
700, 10.980939874322758
701, 23.82857035461484
702, 28.20342657749734
703, 21.25796455168893
704, 23.206009163009185
705, 36.713372843337766
706, 39.03073192187003
707, 26.7916588693638
708, 25.691847216310634
709, 40.27813858283571
710, 45.46522191503709
711, 36.0806444456739
712, 31.904546803320045
713, 37.06480415692022
714, 34.02860268043196
715, 19.79765632428598
716, 20.072839401134843
717, 40.06522915934511
718, 49.39296140129545
719, 40.38102897866111
720, 32.164769834179424
721, 29.741069509898352
722, 22.05419708030695
723, 7.2647394465434445
724, 6.667454254565655
725, 24.558624757713915
726, 33.87122458564227
727, 27.602862836992244
728, 21.07824884115871
729, 18.49089047896905
730, 12.929704198371383
731, 2.9822391113166304
732, -2.4317047109975647
733, -1.3403925455900207
734, 0.3769501810456859
735, 0.8723767533142563
736, -2.625712194251264
737, -9.68019692323196
738, -2.3694484370225837
739, 22.930679746043097
740, 39.53624999736303
741, 41.0978264784394
742, 39.42603696230253
743, 36.60914712958402
744, 21.766062882988535
745, -5.053506164423652
746, -17.116995505976774
747, -10.773474103235458
748, -2.274696509034584
749, 5.2842673734508026
750, 13.11853476294118
751, 20.368221106632063
752, 23.62389891940029
753, 22.938551124660535
754, 24.024181241260067
755, 27.687278248290113
756, 31.612178349860187
757, 35.04945602004864
758, 36.01950420390858
759, 34.341675261174714
760, 30.97976612838147
761, 27.451442515220606
762, 31.065096859907953
763, 40.268978595881435
764, 42.05283538755475
765, 36.677281752500676
766, 33.28516692025778
767, 32.756351290930525
768, 34.11085234345228
769, 38.00126973414535
770, 47.300115440690206
771, 57.69427350678643
772, 53.377115596492786
773, 38.47066707783597
774, 30.02534319216511
775, 26.441605568555133
776, 19.703213992077963
777, 11.535299929160374
778, 7.591129691277729
779, 6.613686037977914
780, 3.2223565747754037
781, 0.271230232763628
782, 4.4657167480945645
783, 12.111495965696122
784, 14.826647246182347
785, 17.49751304960273
786, 28.344886669255175
787, 43.77705271414243
788, 58.488999650063306
789, 68.63976540284102
790, 69.47916713792301
791, 62.71730401950617
792, 50.22040927336502
793, 37.32877741009861
794, 28.97126944692991
795, 21.13912107041415
796, 10.707387280920557
797, 5.153427099780856
798, 8.22006956706764
799, 16.030919233302484
800, 25.216414798665028
801, 32.39169409943179
802, 35.89606018746554
803, 36.84378088393805
804, 36.25661482578562
805, 43.792449139496966
806, 61.38314413542366
807, 67.10594653807993
808, 55.77730602941165
809, 44.99329270866292
810, 38.58660980756076
811, 29.781881012639587
812, 18.49092486915788
813, 14.008211145764108
814, 15.93460723221824
815, 13.053363062121662
816, 6.131280984071509
817, 6.423754268704215
818, 12.925990202180401
819, 16.75819232894628
820, 16.24309739521641
821, 8.601247013913053
822, -2.9393376285856903
823, -10.29954735170395
824, -12.117278327123586
825, -5.104842626386471
826, 7.568245059092533
827, 19.87061028508697
828, 29.25481522645714
829, 32.46741120005481
830, 28.64893139394917
831, 16.93697662751083
832, 8.81245984578618
833, 14.533922915269613
834, 23.308086101966637
835, 28.728844294000737
836, 34.385468476721144
837, 42.07124324128063
838, 49.84056311887389
839, 56.759485393758496
840, 61.04261411810376
841, 62.1942306571691
842, 61.221956247182334
843, 57.17621953533035
844, 41.02070139077887
845, 15.353134992066316
846, 4.926887019641981
847, 10.135163616362206
848, 13.748919005347943
849, 15.535840045662098
850, 20.970192081676032
851, 25.432439356643044
852, 16.01136496540994
853, 0.3862960382543861
854, -4.912153587715693
855, -2.800372237454212
856, 2.6289121520953813
857, 8.19048193327717
858, 9.40470474597123
859, 8.039031862536376
860, 5.620752161399196
861, 4.677258274577525
862, 7.267342074314456
863, 12.722849781004697
864, 20.631774343024063
865, 25.54641306052099
866, 26.030796323177583
867, 27.862655964812348
868, 32.23595875398314
869, 36.41125407227764
870, 39.44270226211711
871, 39.27494294971348
872, 34.41326476366112
873, 20.334669077249146
874, 1.7899184154816794
875, -6.640984911168289
876, -8.546208338580982
877, -11.48729143379478
878, -12.663178941006663
879, -7.198071098204309
880, 3.2700636217268766
881, 17.37055489611157
882, 31.594351595000262
883, 43.464957108211365
884, 49.40382517659418
885, 47.629974990581104
886, 41.3664461630633
887, 32.41034749269102
888, 26.822131040712975
889, 25.215472421612503
890, 19.593911673939147
891, 10.207475436003733
892, 6.107793009463421
893, 8.265405269779876
894, 13.948642111741265
895, 19.170294481011297
896, 16.82913592996192
897, 12.76879777832346
898, 17.62162903035869
899, 27.6769480756966
900, 38.25920603987606
901, 41.0050603798868
902, 29.49691657512267
903, 16.675806623718017
904, 9.649122726572841
905, 7.882992029294201
906, 11.692194297420428
907, 17.48816470370093
908, 22.315880577019925
909, 11.975676883467713
910, -8.74223717523273
911, -9.77725500857241
912, 3.7506119132840468
913, 8.83514763490939
914, 6.592144507921148
915, 2.942706053888287
916, 1.5541627505963334
917, 6.546319533461883
918, 20.81569100673505
919, 45.3410726692905
920, 59.20858273158365
921, 51.507454679231614
922, 39.76066853123666
923, 31.281079716467502
924, 32.3050579618598
925, 42.81773746768795
926, 53.46178964804767
927, 58.89293783725043
928, 44.76261769478742
929, 19.69878127705033
930, 8.47895408597924
931, 11.301079753692193
932, 25.48513387744697
933, 46.570772693467006
934, 70.99001575992042
935, 84.78357269393655
936, 79.18772710281883
937, 62.56640523860824
938, 39.43014806626934
939, 20.309044246054327
940, 8.333408023001084
941, 5.763269943071009
942, 10.976682526025343
943, 18.346287996450428
944, 25.330203432828966
945, 29.875407266205457
946, 32.811740750988065
947, 35.579814306441676
948, 40.2380636325006
949, 48.66059264322121
950, 56.72895084844231
951, 62.20430915910765
952, 68.17947802073559
953, 74.66044296373684
954, 71.78105877501139
955, 60.0955655824464
956, 53.583353083729435
957, 51.48464233925597
958, 45.7920209214808
959, 38.44253534735117
960, 34.11848809701496
961, 30.264692408180508
962, 23.832204896562416
963, 14.527856303975568
964, 2.7004655130249375
965, 0.7243842536558986
966, 11.828037685733307
967, 20.95101706885589
968, 24.229117556160872
969, 21.132146057975206
970, 13.401804923183136
971, 6.673432579359542
972, 1.6650770292758352
973, -0.8600269998373733
974, -1.960790191459182
975, -2.683141321070252
976, -5.342817553612804
977, -11.11931985348292
978, -11.015628349232884
979, -2.013169388888855
980, 11.590124817389551
981, 26.014681042395296
982, 28.573137175743796
983, 22.35100459630803
984, 19.536647561804784
985, 14.897207468484794
986, -0.676790326441278
987, -11.084746022249874
988, -3.8963637853462387
989, 0.7553031948928037
990, -5.371169739058132
991, -3.638786520171834
992, 9.028476152472194
993, 17.584684863275925
994, 21.154593893557376
995, 24.87768228344612
996, 27.37700717760208
997, 25.365732532297898
998, 18.680517113679798
999, 7.390718675395874
1000, -0.021177254908707255
1001, 0.9752043353228146
1002, 6.7308734368461955
1003, 14.962080554108525
1004, 19.44039841714084
1005, 19.623513507058306
1006, 17.44033012481941
1007, 13.894026268931611
1008, 10.614979681718978
1009, 7.353153762356214
1010, 4.650929024546258
1011, 8.09790888260477
1012, 20.79035287726947
1013, 34.58897024934686
1014, 48.08688689026758
1015, 66.66601792330766
1016, 86.78565018600739
1017, 94.29732558074375
1018, 91.91374207055333
1019, 86.25821598998618
1020, 78.81453281559516
1021, 70.97689221587007
1022, 67.64574350768862
1023, 70.20862617660168
1024, 68.2159136655041
1025, 58.14430587661309
1026, 36.34439981286414
1027, 11.609620676504619
1028, 9.059781873434076
1029, 17.289659243807364
1030, 18.33821293243136
1031, 17.316783348164336
1032, 17.622908795342937
1033, 15.146967038269395
1034, 10.203559544866494
1035, 16.59058915424157
1036, 32.218504336251954
1037, 44.91085888675161
1038, 48.81848098911519
1039, 35.14102037569705
1040, 16.0064332378779
1041, 2.596548426347681
1042, -7.229245990257368
1043, -14.687656785030867
1044, -12.323751700801495
1045, -2.664010466083937
1046, -4.895480084107703
1047, -13.256877153348796
1048, -10.59153633034748
1049, -2.2202719175077164
1050, 5.8766558777058435
1051, 13.886223870956655
1052, 20.75251229759442
1053, 15.106152478839476
1054, -2.6402193407564027
1055, -16.036764712143395
1056, -21.848600795903394
1057, -14.876121546566992
1058, -2.2962845922725137
1059, 7.722204218680417
1060, 23.11090697471127
1061, 48.40691151493138
1062, 75.82282074917657
1063, 98.64751402846741
1064, 121.92692163133916
1065, 146.73393191539162
1066, 174.0471955502594
1067, 214.04298416698293
1068, 277.90660664046163
1069, 349.97744736430104
1070, 420.79814107210996
1071, 479.17510869496573
1072, 525.7566262373966
1073, 576.134300026803
1074, 625.6825464610774
1075, 660.8430055410599
1076, 677.126437800976
1077, 670.617033008727
1078, 643.9275340916406
1079, 600.8963066036281
1080, 563.1642569925784
1081, 530.1330497059116
1082, 482.4137792145948
1083, 422.7247859538693
1084, 358.77991430371594
1085, 296.9624721554369
1086, 241.77324695134848
1087, 187.30120348684477
1088, 131.895276731801
1089, 78.62151188411417
1090, 37.165937677055354
1091, 7.00226466799586
1092, -8.191457197551017
1093, -2.1052930967330212
1094, 4.414493307635439
1095, 1.0668836642173574
1096, -1.4920614817451678
1097, -2.629728139051622
1098, -10.560564375068452
1099, -20.33850638571994
1100, -20.487945850661617
1101, -14.807593331020371
1102, -6.2577501070820745
1103, 2.5326554877292438
1104, 10.993170198585176
1105, 19.75676012509507
1106, 26.428885999945805
1107, 24.51122242850147
1108, 16.79028606332531
1109, 7.0258269701198515
1110, -0.32892301027118265
1111, -2.836375258186763
1112, 1.3187554007208746
1113, 11.099567469680323
1114, 19.887863576598875
1115, 24.17067421106617
1116, 19.45179218807857
1117, 7.924199004335605
1118, -7.874619244034193
1119, -16.02584030704429
1120, -14.367655874705179
1121, -5.184276436455548
1122, 8.771804456046084
1123, 21.721564117050093
1124, 27.98675337551549
1125, 23.79683655101553
1126, 15.452490126270277
1127, 6.339918108189067
1128, 2.813229723618633
1129, 2.1740337696687675
1130, -3.6246654028163903
1131, -4.884813564917977
1132, 6.4962401951008815
1133, 17.63399723580733
1134, 24.83211138091724
1135, 39.14853613376363
1136, 55.02439139647254
1137, 56.362516902456036
1138, 52.00348255652352
1139, 49.9071560799905
1140, 37.980559117977236
1141, 15.698130785786361
1142, 5.368322913761858
1143, 8.175836651823374
1144, 18.181527454724574
1145, 26.560747631261165
1146, 26.802348750903093
1147, 28.396578949776085
1148, 33.98575955625415
1149, 38.901493001740846
1150, 42.7150031154672
1151, 45.95466106919912
1152, 40.757323427503934
1153, 22.111926426991204
1154, 15.478658804163842
1155, 25.350216501250088
1156, 31.52706434323636
1157, 29.073613371725514
1158, 13.605758740196734
1159, -0.12057385024104406
1160, -1.9399839532234182
1161, -1.6464397095589902
1162, -1.257023560423022
1163, 2.583670296216951
1164, 3.6366214087554454
1165, -9.354932723098955
1166, -14.108130082227035
1167, 0.07172333581502244
1168, 6.3403242740205314
1169, 3.035848180869607
1170, 7.402916475655502
1171, 12.181185079224633
1172, 7.150685139699817
1173, 3.442022355121935
1174, 6.278976466617905
1175, 12.963386665404641
1176, 23.81058072249607
1177, 42.50513751627909
1178, 58.00023024501297
1179, 60.44989955213714
1180, 58.96666185236381
1181, 57.11634157878348
1182, 56.49030930987874
1183, 56.09163978179595
1184, 53.76649102244619
1185, 47.185364334816995
1186, 35.678103920217836
1187, 26.62947446897374
1188, 22.977794367972365
1189, 28.26516031962342
1190, 32.33908067953098
1191, 23.37144729469378
1192, 12.329579330098568
1193, 4.689870721590751
1194, 5.35780492938693
1195, 14.10175605548352
1196, 28.286757801104386
1197, 31.67702341631366
1198, 14.86962784895104
1199, 0.6852844804257074
1200, -4.8908466529862835
1201, -3.006708350498002
1202, 7.335282217499753
1203, 27.939274477925892
1204, 51.33010312006513
1205, 73.72929448050286
1206, 90.30778921371711
1207, 96.39320811985999
1208, 84.38393182459845
1209, 61.73475549888349
1210, 35.673780565471816
1211, 25.842624059458558
1212, 32.926661770595274
1213, 45.025942196965616
1214, 58.32009578758834
1215, 68.63422979031202
1216, 58.5833628415603
1217, 28.800284532904016
1218, 9.221047142543284
1219, 5.143926027821635
1220, 17.10860642421926
1221, 27.247778306131067
1222, 26.835452035571052
1223, 17.231672319414884
1224, 2.135267338523363
1225, -10.640693952604352
1226, -9.182760566356592
1227, 12.668774485165613
1228, 24.008595307254836
1229, 20.474918354409056
1230, 12.782380752460995
1231, 1.9859901488200649
1232, -9.914602698605904
1233, -2.4420164410198595
1234, 26.895020919370836
1235, 56.833550154285604
1236, 76.58222650287485
1237, 75.23397267082555
1238, 67.10546452196013
1239, 60.53890265633595
1240, 66.35690951862011
1241, 79.2112826208529
1242, 87.46851014763547
1243, 86.358514766702
1244, 77.00193092294353
1245, 82.03975956561317
1246, 98.22575597532386
1247, 110.73458226031107
1248, 120.26517635194136
1249, 126.31474780058193
1250, 119.14561975359652
1251, 106.11383515444027
1252, 109.90133203406003
1253, 118.13982274340265
1254, 121.90293259244686
1255, 132.26488248747978
1256, 145.8374263819237
1257, 145.80823044859585
1258, 138.60535704577046
1259, 130.73876594095077
1260, 124.00643187549076
1261, 121.39091784953416
1262, 130.39131574743033
1263, 139.20502445997863
1264, 136.55481648479508
1265, 127.11127735555579
1266, 116.68091080022509
1267, 119.46385435441925
1268, 119.67735967927797
1269, 101.60803284968915
1270, 82.03118180754404
1271, 65.51828171414081
1272, 49.82418130424867
1273, 52.47132981619802
1274, 77.98435124161188
1275, 77.5362140862469
1276, 51.23826871684946
1277, 50.711557000284756
1278, 60.152757539993445
1279, 59.80461183787952
1280, 56.14343413255892
1281, 47.4794899712565
1282, 21.96583422263734
1283, -1.3908263072382852
1284, -4.545226390423068
1285, -0.15675081688505088
1286, 8.2455081754415
1287, 20.380906851008376
1288, 29.401512704176866
1289, 30.644529161693754
1290, 30.38291071961089
1291, 29.949015283388462
1292, 28.42286926533052
1293, 27.64423829064458
1294, 27.571234086306276
1295, 14.699275543577187
1296, -3.9299650916700557
1297, -4.353901801717711
1298, 7.775215311040483
1299, 26.32728337319918
1300, 36.28581741636208
1301, 34.07849502550448
1302, 18.861410578069126
1303, 8.060285104698096
1304, 9.767353252437033
1305, 13.768877796030438
1306, 15.880511827362852
1307, 11.901540211057181
1308, 2.649531215145089
1309, -8.098191122184062
1310, -7.267426832322144
1311, -2.6846131602878813
1312, -5.9536515733548185
1313, -6.8627902718592395
1314, -2.249802501820568
1315, 6.319391096126765
1316, 12.848950645192417
1317, 11.989323520190737
1318, 10.12835964261285
1319, 9.39885783277873
1320, 10.8286560472784
1321, 19.352513257466626
1322, 34.72039391623798
1323, 29.99792323662382
1324, 12.565861455619597
1325, 7.015263875588289
1326, 14.88516696806846
1327, 30.70154082268641
1328, 30.57398103005289
1329, 20.53744511252603
1330, 13.058713015476087
1331, 8.080951850869724
1332, 6.89043420801022
1333, 13.893562282247785
1334, 14.954154085436357
1335, -0.6548770645856621
1336, -14.226389625426691
1337, -19.035038882568188
1338, -7.948785422770243
1339, -0.7368275550079488
1340, -4.205785423662292
1341, 5.973512046582073
1342, 26.03386902459829
1343, 42.84909878545477
1344, 49.64974248992985
1345, 45.254250750798974
1346, 33.90172395199238
1347, 29.479167288087183
1348, 41.88341168585589
1349, 56.838580160905394
1350, 61.940580403956346
1351, 39.20066160182341
1352, 17.943757387814458
1353, 12.267053596729056
1354, 18.19550867688531
1355, 31.120221885038063
1356, 47.06293832382016
1357, 57.049857939163985
1358, 61.03405480918195
1359, 65.90691212615434
1360, 62.5397171621662
1361, 46.712113296679945
1362, 29.98266213197371
1363, 15.515245006332407
1364, 5.261611948027621
1365, 0.87440191619703
1366, 4.009597775526572
1367, 20.25365453532936
1368, 42.397020705102705
1369, 62.63031908459311
1370, 64.85421454826087
1371, 54.721373207326906
1372, 47.3159557616882
1373, 52.79013204696162
1374, 69.52687531197034
1375, 78.57120917814677
1376, 69.48850687369668
1377, 39.12216914313558
1378, 17.32631705279846
1379, 8.401630269919906
1380, 9.604613764911392
1381, 5.537394171433334
1382, 1.1233775726634576
1383, 30.14594369527549
1384, 60.359015469244014
1385, 64.5247107711084
1386, 45.60843842082318
1387, 16.262320546943783
1388, -3.0184655753753304
1389, 5.560440442389336
1390, 35.87484905400015
1391, 45.90884157881146
1392, 39.02931214661771
1393, 24.36003412694413
1394, 29.962470849672172
1395, 44.33799547066087
1396, 46.19304548573791
1397, 47.82883682025022
1398, 52.98560500233407
1399, 61.14314186855631
1400, 67.87151045514474
1401, 69.599530770201
1402, 61.41279328716769
1403, 49.21824056839591
1404, 40.53472002076728
1405, 40.85699617174737
1406, 41.703233590158334
1407, 25.14362671560366
1408, 13.36408366834371
1409, 16.654891387561975
1410, 33.049499110200486
1411, 46.89830837917566
1412, 49.11483270351437
1413, 46.02426487634693
1414, 48.42143599052429
1415, 67.71294773817158
1416, 86.03836978772301
1417, 91.11555775094871
1418, 68.12296472670323
1419, 50.2781777966145
1420, 50.57295066989741
1421, 56.88966510367936
1422, 62.09839621554147
1423, 60.771134854378715
1424, 48.92107131905368
1425, 34.387742041698175
1426, 27.354030998438475
1427, 10.410412969102254
1428, -6.514639333871173
1429, 4.590101529145159
1430, 20.400501143917154
1431, 30.01341058945195
1432, 37.749922595977296
1433, 26.542723995352844
1434, -3.286984398051345
1435, 18.769718542075907
1436, 56.432077033191035
1437, 58.29729179755577
1438, 60.32066150532364
1439, 51.635156109177615
1440, 1.5142822566260747
1441, -4.99007045769099
1442, 29.892374297261085
1443, 18.12573620254898
1444, 4.0560670021320675
1445, 6.918918808612489
1446, -4.330572662062423
1447, -11.510142534617444
1448, -1.6560817004365163
1449, 1.3723332540191677
1450, 5.175950387733565
1451, 20.896185176095514
1452, 21.44310303744942
1453, 9.166250788809293
1454, 0.8737725280959694
1455, 6.838628985828109
1456, 23.35318956239189
1457, 32.32745491265496
1458, 21.56865192139685
1459, -3.4696279699483057
1460, -5.061404011132026
1461, 9.843195329094215
1462, 28.863800897186138
1463, 22.842824573771168
1464, 10.119345231735906
1465, 10.022721767734765
1466, 11.6329343899381
1467, 13.610182500187875
1468, 16.103604128180677
1469, 11.655962612505391
1470, 11.914796892037884
1471, 37.7522393771319
1472, 48.990345323062456
1473, 43.06861419410825
1474, 44.339109087556835
1475, 41.189178880366626
1476, 32.694029757443104
1477, 31.47128920223099
1478, 22.207481939456557
1479, 7.102390209466876
1480, 26.95768875484282
1481, 41.58888887043827
1482, 27.952757669537277
1483, 17.24183672606
1484, 3.799485090414464
1485, -13.200061237394948
1486, 5.886531428382568
1487, 34.63672224396623
1488, 38.04378919619012
1489, 34.39126799108635
1490, 29.903974576957808
1491, 27.316583588341018
1492, 20.63127783550749
1493, 10.717593048215122
1494, 1.6921708605157164
1495, -1.654900655414849
1496, 2.8468147700793907
1497, 16.591100974855408
1498, 20.13683087207437
1499, 12.435878992669814
1500, 5.559445653971352
1501, 6.969700963753894
1502, 10.926241899519255
1503, -2.1905289283429283
1504, -3.95863565741638
1505, 11.728307969957768
1506, 26.87627547073862
1507, 34.768522462622514
1508, 32.06525626983648
1509, 17.63441373817045
1510, 20.22898478344996
1511, 42.58895393834359
1512, 42.634101540477104
1513, 26.04565652653764
1514, 2.6869670735222826
1515, -10.531035154426263
1516, -8.805151226069256
1517, 3.158053421511795
1518, -3.17052741976795
1519, -5.404402645931441
1520, 8.25779550023367
1521, 19.24161367644342
1522, 23.42756785995175
1523, 18.491328674000442
1524, 1.0068883390301835
1525, -0.9394093401494956
1526, 24.447279758818468
1527, 43.64570663100449
1528, 39.134442256034845
1529, 10.976275797480639
1530, 0.9351529499408571
1531, 3.6352480770435704
1532, 11.692704104252243
1533, 22.789001152567835
1534, 17.243657615136726
1535, -6.927688721749519
1536, -2.976658694205071
1537, 8.498100426752444
1538, 12.995002891678041
1539, 21.757996739883083
1540, 25.90887259322767
1541, 18.758760874442487
1542, -0.1571438316232161
1543, -10.535711667637997
1544, -3.761224988653794
1545, 10.875792283688725
1546, 17.2343391211798
1547, 10.098657822550194
1548, 1.6797413357596724
1549, 5.448785955566564
1550, 22.352128495370835
1551, 35.93787441103359
1552, 24.761509078050267
1553, -4.160582772730095
1554, -7.3620782691937166
1555, 5.893285175132405
1556, 21.77191919295933
1557, 17.482615826233086
1558, -0.4786138114759524
1559, -16.68989103408876
1560, -8.280322727018756
1561, 0.5937870876050511
1562, -1.0760771248108085
1563, -16.182806579830867
1564, -6.092751570171458
1565, 24.667620048090384
1566, 53.965451752831086
1567, 86.08492736166954
1568, 112.31128153180998
1569, 133.54571457904422
1570, 188.278940890204
1571, 259.58979358900615
1572, 324.8159191332013
1573, 396.1983745390594
1574, 464.20286242169414
1575, 515.6102391046168
1576, 533.8204936756761
1577, 558.8404914855321
1578, 607.2211333343575
1579, 642.061419508592
1580, 672.8827325178545
1581, 685.2116173353113
1582, 625.4361074917156
1583, 571.7266081144526
1584, 531.2043904210736
1585, 452.4771252752828
1586, 383.3812549159072
1587, 323.1068124979108
1588, 248.6127318327358
1589, 193.08974965780703
1590, 134.0893634095014
1591, 46.438884332425005
1592, 9.767818936470121
1593, 6.355297154198752
1594, 11.769472148388786
1595, 24.845270792083966
1596, 16.141259895144913
1597, -12.943907498530052
1598, -9.29895169471365
1599, 1.0733719565423598
1600, 6.16865152160608
1601, 9.27645519778821
1602, 11.8600644697392
1603, 10.142731562924837
1604, -2.3749750004678845
1605, -18.20726768865893
1606, -20.909659754248423
1607, 1.1402010999859158
1608, 12.324745699838559
1609, 11.277289165972206
1610, 2.546160925925278
1611, -9.523427757656691
1612, -3.6440013279154755
1613, 14.566797786633515
1614, 3.7019693077465945
1615, 4.796544563707357
1616, 23.174008723851557
1617, 39.06105900651801
1618, 25.252517969251812
1619, 3.8638751238172517
1620, 1.5661632493674915
1621, -4.167135248315162
1622, 1.01158399525616
1623, 18.16917861738034
1624, 9.839235915058225
1625, 12.944297962985047
1626, 30.589016271443143
1627, 33.00838445030786
1628, 24.105061496921735
1629, 13.760145234185302
1630, 13.741998959207649
1631, 27.78856871741641
1632, 43.08755424392871
1633, 47.14596271392884
1634, 33.34639102359347
1635, 33.299107327104366
1636, 47.266502341214164
1637, 43.804195455916215
1638, 31.409206361785436
1639, 14.18786407000107
1640, -0.7186108435350889
1641, 17.406131814913806
1642, 26.604540658257747
1643, 7.038311239502946
1644, 4.7706907461504215
1645, -0.7460293069702857
1646, -10.00013015963168
1647, -6.756042649621122
1648, -5.683563461084077
1649, 0.11057803779954156
1650, 14.237496454232087
##END=



