##NAMES=
##LOCALITY=
##RRUFFID=
##CHEMISTRY=
320, -6.045785171564148
321, -2.6438459073997365
322, 5.900049640980342
323, 26.189563988802547
324, 50.33213431717013
325, 65.51679480453595
326, 72.27323277878531
327, 73.56159433746461
328, 69.99553379039435
329, 64.67761910047102
330, 58.58775370372496
331, 61.14407205540465
332, 77.51455930621842
333, 99.74959592651157
334, 117.78871285095738
335, 130.4059735860601
336, 134.31662656938488
337, 131.27425761574705
338, 133.31749870707245
339, 142.19092772929434
340, 151.68239186258506
341, 159.42121567419144
342, 164.83764929570725
343, 167.4628904709166
344, 166.08490558587437
345, 158.45952695149663
346, 146.55600595383657
347, 138.27333144207932
348, 133.43889804117453
349, 122.95223063951516
350, 104.92728855807991
351, 92.99034787906066
352, 94.16234975690804
353, 104.93473895367379
354, 121.3351191634406
355, 138.08692996348827
356, 142.5422666783861
357, 135.32643394873094
358, 122.3879834368754
359, 105.20455322908492
360, 92.21584626072217
361, 85.93754888212698
362, 80.44587571872717
363, 72.01897710990988
364, 60.05837056861901
365, 43.74474096024369
366, 25.64465385747644
367, 12.940428516817065
368, 6.699859674094114
369, 2.4479630452246965
370, -0.5574819233684138
371, 2.2571757103319214
372, 12.770045218608175
373, 21.37789134808645
374, 21.617825126892058
375, 18.82585103088695
376, 20.848788929168222
377, 23.33832442116909
378, 13.364382360365653
379, -5.965283745030774
380, -11.421370470997772
381, -0.6511361819284502
382, 10.16542058407822
383, 15.169153985229059
384, 17.269699998590568
385, 18.437152967342172
386, 16.97135733884761
387, 10.470477286384721
388, 1.7313109400424764
389, -1.4855665287732336
390, 0.13564534117585936
391, 1.3345572137131967
392, 1.0991702719870773
393, -2.7221335536173683
394, -11.091768827624492
395, -16.9880694708977
396, -16.320299214206443
397, -12.372136882171617
398, -8.796320932444814
399, -4.894137578093705
400, 0.5367234501454732
401, 7.735395456533297
402, 15.894217766111524
403, 26.18028223088004
404, 44.784049344977575
405, 70.03555766094996
406, 91.21861935504103
407, 103.2583360325525
408, 109.71802634684491
409, 113.84140660401863
410, 116.65747711828863
411, 120.00233443250545
412, 127.9761099697048
413, 154.01108407104903
414, 195.39248247977275
415, 227.81266515414063
416, 247.50203147713955
417, 263.20338128143885
418, 277.781182956026
419, 283.41409552999767
420, 275.2391597423589
421, 263.1248754451849
422, 258.9351454091816
423, 257.5825504591862
424, 247.7114107713992
425, 232.61883145418142
426, 227.28598594287996
427, 231.07596408450217
428, 226.38570623312307
429, 210.20309797913887
430, 198.15882724410085
431, 196.2859153965901
432, 192.659278705813
433, 178.8995017673069
434, 157.93265550898604
435, 133.64753055816755
436, 106.74144564698781
437, 78.82520735856997
438, 52.4772756265279
439, 38.284235992212416
440, 39.090146129872664
441, 33.447216615347315
442, 18.119885663748846
443, 7.306619862914886
444, 4.7529156646219235
445, 12.254731233782877
446, 31.955689783850175
447, 54.617395566731375
448, 70.25215250677775
449, 76.73369545404921
450, 69.4821171090889
451, 52.89327052466615
452, 44.1090897191184
453, 44.44372867009406
454, 51.65009138279311
455, 64.26075838673887
456, 66.96752294798807
457, 54.90644011489121
458, 38.584450671688046
459, 23.89726997683374
460, 11.960478842518569
461, 3.871828400994673
462, 0.16375564941654375
463, 0.7132241626668474
464, 2.713914855060466
465, -1.9110027852884741
466, -11.54157317885074
467, -14.340544628470525
468, -9.6913684939218
469, -4.647929688513614
470, -0.6311777136970704
471, 0.2688891070470163
472, -2.8343756876124644
473, -7.853566529388445
474, -13.703001245129144
475, -16.358562239524872
476, -10.793102181684844
477, -0.9561365310178189
478, 5.469538092587754
479, 8.161903277085457
480, 6.487020605348789
481, 2.337916818371923
482, 5.987801264722748
483, 18.36648556179489
484, 30.760571436862847
485, 41.13037759320878
486, 48.44570219344905
487, 52.254717660407096
488, 49.014423909433845
489, 36.472270855325405
490, 23.336650495878985
491, 18.836140268905638
492, 16.678329992017098
493, 5.9412118384721
494, -6.664596250948307
495, -5.118048734766489
496, 6.141260571771454
497, 3.9027227788560594
498, -11.131483921826202
499, -13.003257375566136
500, 2.2122531587810954
501, 16.839732433402787
502, 26.469307563461825
503, 41.44351640244486
504, 63.71484186004682
505, 80.51167691679075
506, 81.90202157036947
507, 85.2825902971449
508, 112.63502292099292
509, 153.0657333038862
510, 184.9973385013859
511, 208.29001500911136
512, 224.24737133466078
513, 233.7836541061015
514, 240.73373510208148
515, 246.29368389201363
516, 255.8423171745826
517, 270.07009114121047
518, 283.2763611876285
519, 293.59476647591737
520, 299.16133950442054
521, 299.1098525280745
522, 296.59237455016637
523, 293.87244869867936
524, 287.7303201693544
525, 274.55376423244525
526, 254.1196560002977
527, 226.0521746107429
528, 194.30180546171596
529, 168.8527213464463
530, 150.05398036882025
531, 137.398240497002
532, 130.07608790355516
533, 123.79086106528257
534, 116.73355778671839
535, 98.62442666399966
536, 67.96988798854227
537, 40.44493153594158
538, 25.71539328893823
539, 26.159691900392318
540, 43.712764544948186
541, 65.94742685804795
542, 85.62952108984973
543, 98.19393086266973
544, 98.58059754782562
545, 91.68878456250877
546, 85.4869137917176
547, 80.52330347029647
548, 77.81133368162546
549, 75.9616277110772
550, 70.2700860050013
551, 61.19830354844271
552, 52.66734331515772
553, 44.995968701544825
554, 36.88809139058867
555, 28.193430696327596
556, 20.01924929593679
557, 12.759039711990226
558, 9.395584632307418
559, 10.182648987331959
560, 11.002969623429635
561, 10.146683459739961
562, 7.229807196713864
563, 1.963541062270906
564, -3.026329803763474
565, -5.620506959011436
566, -6.68346484625863
567, -7.240519155293441
568, -7.76389888493668
569, -9.15434043201185
570, -9.240791689360321
571, -1.4044900279568537
572, 14.002718424083469
573, 31.15483115770985
574, 46.31984717639625
575, 42.72691800988241
576, 20.754930289709137
577, 2.1530078668811257
578, -8.571955463642098
579, -12.432418895525643
580, -10.018092413379236
581, -3.9995341669196023
582, 4.936848634053149
583, 10.25351932112926
584, 8.557289593171845
585, 8.689805274361333
586, 16.540724161101934
587, 27.005078905046503
588, 35.50144362877836
589, 38.06971598058681
590, 29.87120429780225
591, 16.25155319026817
592, 5.894406558851188
593, -0.2309575946978839
594, -0.3523200542108498
595, 2.529825617354618
596, 0.11792820903337997
597, -5.424472552722818
598, -5.3594248791819155
599, -0.5217265892056275
600, 1.942486522913896
601, 1.8011389318339752
602, 3.118221977383655
603, 5.88410893525861
604, 4.368314146444845
605, -1.7600061367584203
606, -1.8325207950483673
607, 6.401704161819907
608, 8.895332608630724
609, 0.961818527847754
610, -4.7337922102778975
611, -3.1031822114032366
612, 3.523830185499719
613, 14.389115605160896
614, 28.941854784482985
615, 47.035304316741986
616, 60.37250534978239
617, 61.40251301649596
618, 54.85983334246703
619, 46.25053672983768
620, 35.63002170488562
621, 23.067848514312573
622, 10.361475816018356
623, 0.7493561809719722
624, -3.652974079345313
625, 1.067963568659252
626, 11.185592353866468
627, 14.88467073182801
628, 13.609007835301327
629, 14.175221772867644
630, 16.95645595257338
631, 21.338528789167867
632, 26.266374236738557
633, 26.938290761774624
634, 23.359482017532173
635, 19.33804935765147
636, 15.039062585905867
637, 7.040901679806211
638, -2.8891083461539893
639, 0.5320318373564987
640, 19.87104899325186
641, 34.314763560633764
642, 38.62517556308876
643, 45.253002125310104
644, 57.64405622579807
645, 58.027685530345934
646, 39.82783797232469
647, 21.341556960695925
648, 11.097811570600697
649, 4.040544324885104
650, -2.1520047199323926
651, -3.352802204301952
652, 3.318652293656669
653, 10.491758945480342
654, 11.83682664477692
655, 11.217365255888126
656, 11.997630588757602
657, 16.781920876130698
658, 28.223789703847615
659, 39.64927266103223
660, 43.151196986769264
661, 39.25246797516593
662, 28.68458702750604
663, 14.291152764515573
664, 0.48304656909704136
665, -8.749334821530283
666, -7.496300622801755
667, 0.6176668803045686
668, 8.737501161064756
669, 17.427131758755422
670, 25.721217521614108
671, 34.29524758242678
672, 44.823722262940464
673, 54.817838723470686
674, 57.25008327504747
675, 53.066413480807114
676, 46.348027929041564
677, 38.3188321559669
678, 32.133795778635886
679, 30.388767982881745
680, 41.68863184249631
681, 60.011632212424956
682, 57.8840418408613
683, 37.318306933950225
684, 19.93337955821744
685, 7.351246478561279
686, -4.179199578915359
687, -13.400047694000023
688, -5.504195805456675
689, 17.490397042187396
690, 27.143315852636988
691, 21.89360449774449
692, 20.328159492975374
693, 25.5237924005869
694, 36.788314469372835
695, 52.4220222255326
696, 61.14730065293088
697, 61.77665740607972
698, 62.302995472612565
699, 62.716041918653445
700, 49.08364352794433
701, 22.07749759292801
702, 14.878972412303028
703, 33.7229131247027
704, 48.77467348850632
705, 54.156328203220255
706, 60.55255001878322
707, 69.96925669337134
708, 74.77606804268271
709, 73.51710775561696
710, 72.48303245875059
711, 73.38975161441113
712, 76.06972810275147
713, 79.3674641634093
714, 70.11572334224866
715, 46.635871594904074
716, 35.261643404392544
717, 41.959837313789194
718, 43.50326386462075
719, 34.14244423257969
720, 30.024589805292635
721, 34.82468893925761
722, 32.156982650420105
723, 17.952785323684566
724, 5.0757529720590355
725, -2.041985513677446
726, -4.887567723470511
727, -3.976993739601312
728, 0.9098620623472016
729, 9.646790478239382
730, 13.669093751200762
731, 10.731162953572948
732, 5.260373192195402
733, -1.0121610954879543
734, -3.3566987530757615
735, -1.0919884260638355
736, -0.261614888972872
737, -2.102460672011148
738, -0.8805157849060379
739, 4.6565492508866555
740, 8.406080057530744
741, 8.66106395140605
742, 5.5243155952462075
743, -0.5292413562729053
744, -5.055726040402533
745, -6.8894314044632665
746, -1.8709357375319087
747, 10.347367548845341
748, 18.879939212662066
749, 21.582870100950913
750, 22.512411780476214
751, 22.485860591817527
752, 20.737335747278394
753, 17.575810491876382
754, 16.458665049543924
755, 17.625957482618105
756, 17.988948301454002
757, 17.785712495775442
758, 22.17385909232462
759, 29.956165153223992
760, 28.91099205363571
761, 19.215193065966105
762, 12.421894794200398
763, 9.50895417103311
764, 6.839726350758156
765, 4.012839482785239
766, 1.8389246671558794
767, 0.6689636855335266
768, 2.5334626761737127
769, 6.993990740400477
770, 10.546601094304151
771, 13.582910503034327
772, 18.531698652994237
773, 22.316417032648133
774, 14.677322748548704
775, 1.334007954079425
776, 0.7129516955092186
777, 9.295389236926894
778, 16.265763703172524
779, 20.772722236363734
780, 24.333780121796735
781, 27.48063751907648
782, 31.183748461929554
783, 34.131626897176375
784, 33.86522148923859
785, 34.833817721084415
786, 44.356206925814604
787, 53.227611804568824
788, 48.12745015705195
789, 41.93145018625455
790, 50.86303384411531
791, 63.96902603457647
792, 69.35589260975576
793, 68.23719974614323
794, 61.73986812965404
795, 49.742002974277966
796, 32.2509112369753
797, 21.127574406076292
798, 26.48439115238716
799, 40.72693274247786
800, 60.40691033479516
801, 76.85864603817072
802, 85.79511449356505
803, 89.18915823974748
804, 87.99409380732413
805, 84.01289753087622
806, 77.73098971134414
807, 66.72995580254565
808, 51.3037461971644
809, 42.37849451083821
810, 41.17115159466266
811, 33.93471780950131
812, 18.936724060456527
813, 4.79961503764298
814, -4.582162982864702
815, -0.30775195482920026
816, 15.3108302168921
817, 23.888703109554626
818, 24.281379034045585
819, 20.159860331787968
820, 12.42227205349127
821, 2.7556796451403898
822, -5.689359249237896
823, -6.9809834573052285
824, -4.009537709913275
825, -2.665929202294592
826, -0.6865021293860991
827, 5.9186159317337115
828, 13.007369914788796
829, 14.917942344788116
830, 11.261219740762954
831, 1.6883288576982522
832, 0.6005706196924621
833, 19.491329471004974
834, 44.211699697005315
835, 65.46506567562255
836, 80.59665175412374
837, 88.15348983891408
838, 86.65615970456065
839, 76.09424768834288
840, 65.46724895261605
841, 57.87446961584055
842, 54.392293605099894
843, 54.96683409240586
844, 57.09457401913551
845, 59.35356068993906
846, 56.65992911474359
847, 47.78631827103209
848, 30.85226174467607
849, 11.301479926534284
850, 8.894037779153678
851, 17.937269587559967
852, 19.85922404838584
853, 16.281662665800923
854, 12.166747768869755
855, 6.013668910116394
856, -4.063127329040071
857, -10.388568397032941
858, -3.64368564371307
859, 6.513469020262164
860, 11.815627278780084
861, 20.495751067885067
862, 36.99927965980669
863, 37.213687495446266
864, 11.638197080424106
865, -4.740760480735389
866, -1.6831742677959483
867, 0.10519765360731981
868, -2.6791124436358587
869, 5.910527412123429
870, 23.4634961054453
871, 19.3797047706812
872, -0.003934162672067032
873, 5.542263031631137
874, 27.907839724849964
875, 33.85250665504418
876, 30.3486156258773
877, 35.72965664158528
878, 39.948266326686735
879, 27.060835744213364
880, 14.407227297237114
881, 20.671056477441653
882, 23.694232228449437
883, 7.290611388425077
884, -4.6655208233582925
885, -0.6876857632464635
886, -0.3911998884586865
887, -9.85309765697275
888, -9.899358717749692
889, 2.4932278760843474
890, 9.199120470705111
891, 8.0371294935876
892, 8.480022372860276
893, 11.362676569561245
894, 15.17940332458602
895, 16.70838316912659
896, 8.403790279271107
897, 0.12112830385740381
898, 9.459133727357312
899, 22.01287388324681
900, 20.276270914600445
901, 16.706263506599043
902, 21.051712365668664
903, 21.388486499771716
904, 12.118376523255392
905, 12.131862642277156
906, 26.151145277469823
907, 27.650856990815555
908, 13.418569165037752
909, 8.112572760974672
910, 14.79007992496554
911, 23.551780790502107
912, 33.3437368283212
913, 44.063811336995514
914, 51.23270190370249
915, 46.05542755260103
916, 34.853538692837446
917, 26.302174782516886
918, 20.30122138444449
919, 16.831824270435845
920, 22.936416239529535
921, 39.458031027977995
922, 56.83687618760223
923, 70.83865760690196
924, 75.66364620941249
925, 71.20333109638977
926, 65.4437634582514
927, 61.0089160941302
928, 62.874278168653746
929, 66.28424757259927
930, 58.27600666179569
931, 42.285642680943965
932, 24.919303881806172
933, 10.713653198220072
934, 5.370767784301734
935, 9.261678988918447
936, 22.92023246010058
937, 34.74643715426646
938, 40.52093701809781
939, 43.659624959019766
940, 44.91066554561803
941, 43.08206649752901
942, 40.78282110106011
943, 48.757724014594714
944, 64.28523362147826
945, 78.14596481509807
946, 87.49548452945191
947, 88.5494024909367
948, 83.8274101060374
949, 75.8465334917014
950, 69.08557981366266
951, 66.38860894174013
952, 71.75830921524266
953, 85.11697843123648
954, 92.9563314071238
955, 93.69838791338043
956, 94.95354150898311
957, 96.62736462468138
958, 95.32523709451561
959, 91.02522859491728
960, 84.12253080095707
961, 71.6195288809563
962, 50.13969742991458
963, 26.01979733256985
964, 3.9587305703553284
965, -5.71501941615179
966, -1.1931571024047116
967, 5.407089444775011
968, 10.170920354235022
969, 5.140155745532866
970, -5.109309932905944
971, -3.592537967538192
972, 2.737655058742803
973, -1.2055988869556131
974, -5.466621667846994
975, 1.2600682660563507
976, 9.101389327718607
977, 11.791581570184007
978, 19.64641241711024
979, 34.37234094428595
980, 37.62224432028188
981, 28.30666123184892
982, 20.005651077667608
983, 13.685819920489848
984, 7.550749224023093
985, 0.9133155272024851
986, -7.047253348842787
987, -11.757795436920787
988, -9.218638310057031
989, -5.473811736557309
990, -3.0622213469459894
991, 0.690601247153154
992, 6.591334243563779
993, 12.99262616760916
994, 17.983563514306752
995, 16.224893241642803
996, 10.868614388577953
997, 8.532400028041138
998, 6.314277171431513
999, 1.2080151063469202
1000, 0.8505646184162288
1001, 8.879474126986679
1002, 17.061884551465027
1003, 22.456463118044667
1004, 23.088890555412036
1005, 18.859405359959965
1006, 10.627184776975355
1007, 7.923491699774786
1008, 26.741688522092772
1009, 51.31942688356321
1010, 65.45104964147504
1011, 68.77713503321411
1012, 61.8505263521979
1013, 54.79704349936128
1014, 52.75476902391847
1015, 67.502827490051
1016, 92.44151774870852
1017, 100.26830789601854
1018, 96.21255612617006
1019, 93.04515519450388
1020, 91.92665570361805
1021, 93.62777768569867
1022, 95.62089768247779
1023, 96.30877008435255
1024, 91.9019575880352
1025, 82.43147532349849
1026, 72.94042615917215
1027, 65.48422767661623
1028, 63.63783269425858
1029, 65.63141843181666
1030, 68.71950395988279
1031, 66.79395467639688
1032, 56.15584720100105
1033, 46.38210330606125
1034, 39.66849965339043
1035, 26.63458043608216
1036, 10.70060495302414
1037, 10.99100976975842
1038, 22.42254356534295
1039, 31.757072049863837
1040, 34.13267482388028
1041, 25.507344288554123
1042, 10.901163981719037
1043, -6.1363368052016085
1044, -15.105328862560782
1045, -13.876567183760017
1046, -0.8654524318340009
1047, 14.373971894894112
1048, 7.857575815925884
1049, -4.652199636533624
1050, -5.599791893580914
1051, -3.555719958991631
1052, -2.9374809612631907
1053, -4.48112579141889
1054, -8.815057445785897
1055, -17.57588201563476
1056, -24.387051675729253
1057, -12.36998479034537
1058, 1.5697186101392617
1059, -2.999731196234279
1060, -5.888879610256936
1061, 3.22718154942595
1062, 14.012421240991898
1063, 28.606995738250134
1064, 68.61716939235066
1065, 124.30320578188048
1066, 150.57764958528833
1067, 172.63681118389923
1068, 220.53776487734967
1069, 275.0414739950015
1070, 326.8386289005607
1071, 386.03885865878283
1072, 451.01736642362584
1073, 503.1843230645104
1074, 544.3255294610235
1075, 582.7447007297224
1076, 610.2276603924533
1077, 618.660356962996
1078, 615.7737472150825
1079, 604.8622776845091
1080, 583.5874917093729
1081, 550.3183816821365
1082, 501.06102726946165
1083, 438.34272263875073
1084, 367.1848729896824
1085, 298.4320177114214
1086, 240.69947728014586
1087, 199.03812883437195
1088, 172.14602690373613
1089, 141.13094353551696
1090, 104.03407111248771
1091, 64.09263428846634
1092, 29.9853558150121
1093, 1.0722893481870415
1094, -18.905783751312356
1095, -28.061652076226665
1096, -25.156365910120257
1097, -11.728107063537664
1098, 3.737008517451841
1099, 15.594377156258588
1100, 11.883203824499105
1101, 4.739881000356036
1102, 4.844387025293599
1103, 12.314823112759541
1104, 25.055512882467383
1105, 33.304054484861126
1106, 32.18080557671624
1107, 13.164745655978777
1108, -4.722793222769951
1109, 0.25856417654267716
1110, 12.686030731725396
1111, 23.11819341713135
1112, 19.529114011767433
1113, 4.521635962472601
1114, -3.974076487146931
1115, -7.941310904926468
1116, -12.30612250699869
1117, -8.819918832933809
1118, 6.156455744868481
1119, 8.11964781204938
1120, -2.8807471255533983
1121, 2.91734337563139
1122, 15.775369231996592
1123, 11.22648253544753
1124, 2.0274416049742285
1125, -1.8207059536075576
1126, -1.5580602601578448
1127, 2.2055414890494376
1128, 8.229553765478158
1129, 13.251708319315867
1130, 10.848329873364264
1131, 5.283555456701606
1132, 0.5723780417790749
1133, -0.013034292287557037
1134, 3.1258960476507127
1135, 2.2024427728770206
1136, 2.4257777301352235
1137, 18.36253404196168
1138, 44.52320103189095
1139, 74.66327545107515
1140, 90.52390128857701
1141, 86.60504581403029
1142, 70.72319000268521
1143, 49.57657387867039
1144, 35.61049189401638
1145, 29.89137119293423
1146, 32.59089885511639
1147, 37.106191168307305
1148, 41.15080640912424
1149, 45.60621783198235
1150, 48.09672935715048
1151, 43.24072235467679
1152, 32.3799178461536
1153, 17.63117358408317
1154, 12.015521582154634
1155, 20.0621072383492
1156, 35.13217477983426
1157, 49.13403377130885
1158, 47.84843871865269
1159, 35.13609617976226
1160, 15.193042776519405
1161, 1.5023104254044028
1162, -3.293851829151663
1163, -5.861655067725451
1164, -7.3532482744217305
1165, -8.21657703110941
1166, -2.098345595591809
1167, 13.218719300904468
1168, 16.45467268710877
1169, 6.580897558834977
1170, -2.7852188125764314
1171, -5.342727827063072
1172, 5.481173038631596
1173, 22.588166998655197
1174, 39.583767998140274
1175, 43.66918219711192
1176, 39.872468715189825
1177, 46.43585189354508
1178, 57.283411844206285
1179, 65.78680850092746
1180, 68.49868424324836
1181, 64.57362578294897
1182, 55.73999197241574
1183, 45.13997645301197
1184, 37.96079983962227
1185, 33.289802564543606
1186, 30.65233660568083
1187, 31.66050022753666
1188, 34.52764395157783
1189, 32.41813299577211
1190, 26.526525081427963
1191, 18.80408380895051
1192, 8.208107626867331
1193, -2.9868668879637426
1194, -5.423755646913605
1195, 2.7785575345803863
1196, 23.433706542207574
1197, 44.91378433163709
1198, 59.6035082429446
1199, 73.03730954325465
1200, 81.84002752268225
1201, 69.8968637904195
1202, 51.137402860226985
1203, 43.83874077436303
1204, 40.423561719237796
1205, 40.15737541322983
1206, 56.70279146187772
1207, 77.69162975088307
1208, 75.2550875995289
1209, 63.28657417726049
1210, 51.437365112536554
1211, 39.2093235875368
1212, 28.3470630412819
1213, 24.324234333218328
1214, 20.27504023399888
1215, 9.773634502656705
1216, 11.638830092565513
1217, 26.885631178994117
1218, 30.058830022612483
1219, 23.838687847968686
1220, 16.787185924526284
1221, 11.223205616486212
1222, 9.091173880419547
1223, 15.536457152774574
1224, 21.22209592385184
1225, 4.002860680850063
1226, -14.091674278160326
1227, -19.374750785184233
1228, -18.11627321691776
1229, -11.149239210752967
1230, 3.6455248292616034
1231, 19.17657304643558
1232, 27.441920008726356
1233, 43.33423771845696
1234, 63.732237298547034
1235, 57.13983053028733
1236, 34.14682050037209
1237, 13.45856270836498
1238, 7.0635928877520655
1239, 17.241965532310587
1240, 36.891086751624925
1241, 57.28874674825306
1242, 68.6506323787246
1243, 75.96533466148162
1244, 81.52904918985519
1245, 82.47149774257696
1246, 82.14819383919553
1247, 88.3755570540136
1248, 92.31365355593402
1249, 90.75467491918812
1250, 104.43101125247517
1251, 127.74885413336733
1252, 136.57039837562047
1253, 134.2825518056518
1254, 124.45327142036126
1255, 109.05178361732374
1256, 98.36189626509963
1257, 119.19651066453002
1258, 143.55844326029433
1259, 147.05326113700153
1260, 140.46771318941887
1261, 127.9831078546963
1262, 113.18951057077106
1263, 103.42926846559226
1264, 103.93188053936638
1265, 96.16586008508784
1266, 80.52804513664
1267, 76.18515163187067
1268, 69.26192318252174
1269, 46.418910699717344
1270, 35.55109731901962
1271, 42.439812678605676
1272, 41.877262579648686
1273, 39.28740257045388
1274, 40.774862516947906
1275, 29.13284444691476
1276, 11.611697136625708
1277, 31.53573805906467
1278, 56.65140614766028
1279, 53.63300307628788
1280, 44.68133913324141
1281, 34.118947912385465
1282, 13.819096173857133
1283, -2.6151479273535188
1284, -2.8563985478849645
1285, -0.5371487615279875
1286, 1.7600448759260416
1287, 7.73265119902635
1288, 13.768949812071241
1289, 15.535659880654975
1290, 16.9203802966083
1291, 20.313513096767565
1292, 29.385111629798757
1293, 39.87821076889395
1294, 47.804852510942965
1295, 48.86614805151089
1296, 40.07939518641774
1297, 16.89909467443931
1298, -2.6788107357233457
1299, -8.034895029377594
1300, -9.799289683412326
1301, -5.786677736986576
1302, 13.093512226190342
1303, 37.1396489605595
1304, 58.33818697201923
1305, 64.70028187868115
1306, 55.778937649061845
1307, 34.722271191318896
1308, 20.755632213486706
1309, 21.74161465464931
1310, 33.403594547797866
1311, 38.92032816095889
1312, 18.555981198822565
1313, 1.0043449611989672
1314, -3.6142453910747463
1315, 2.8534615060302713
1316, 8.013044500640262
1317, -0.04522385375730664
1318, -9.738955883063909
1319, -13.116220149104947
1320, 4.483948571333713
1321, 24.04962670033251
1322, 30.500913565239443
1323, 28.96878022421538
1324, 25.12474849418186
1325, 28.077404392290873
1326, 43.131562335405306
1327, 64.41136802748065
1328, 50.51541153954918
1329, 19.297710542280583
1330, 1.7139504928270526
1331, -12.848387798561589
1332, -22.92193739451227
1333, -6.82252058609015
1334, 7.930684546130806
1335, -0.861672521014043
1336, 7.272959177226767
1337, 24.91823486387989
1338, 14.237229039513068
1339, 1.35133957186099
1340, 0.2727021701755348
1341, 0.8636871484070525
1342, 4.0398652078972646
1343, 12.921042979330878
1344, 16.999807265909567
1345, 16.443378468390165
1346, 24.153625535755054
1347, 31.674294226730126
1348, 30.84131533406139
1349, 21.255870159577853
1350, 10.872495240969101
1351, 17.060157190683867
1352, 32.91528640709612
1353, 50.74957655795265
1354, 49.97596442884924
1355, 41.20419515163303
1356, 39.304261177855096
1357, 33.490100052157686
1358, 24.500409909754808
1359, 22.775477031729906
1360, 19.85570110966205
1361, 13.702899844736521
1362, 28.277240964399198
1363, 43.869795694558434
1364, 29.969376693889444
1365, 25.080781397287865
1366, 35.14152462966217
1367, 34.764757452181584
1368, 34.623722620003946
1369, 40.087122991347314
1370, 22.292864871453958
1371, -5.057588154635596
1372, -10.4179810182236
1373, 3.9005665256106568
1374, 32.07309806201056
1375, 52.11540361805851
1376, 57.36883221554308
1377, 45.69182297288512
1378, 30.546000918789105
1379, 18.70745780346033
1380, 16.84228210625656
1381, 17.72031736698068
1382, 17.430446581801334
1383, 12.81682707058053
1384, 14.05838540574814
1385, 23.615506869793535
1386, 17.19049142625431
1387, 10.981265593550916
1388, 37.61257528730903
1389, 57.93522368625736
1390, 60.940594290223544
1391, 56.76136416123995
1392, 45.26796735495236
1393, 30.20941640760975
1394, 37.14436669415545
1395, 52.166622362880844
1396, 50.519382448060696
1397, 34.96438683567021
1398, 18.578123194946556
1399, 33.510330891185276
1400, 54.267534919221816
1401, 64.02199558559391
1402, 51.016125955315374
1403, 32.8682212647077
1404, 29.56028504502956
1405, 38.607939182435985
1406, 51.087508097071805
1407, 50.813295411014906
1408, 33.48106599046059
1409, 9.16098072119803
1410, 17.701272452132798
1411, 38.18738761724421
1412, 51.01825379408797
1413, 59.09585970298053
1414, 58.79333352598519
1415, 46.070571873817016
1416, 37.44960856649959
1417, 37.20840574131603
1418, 44.18480675958813
1419, 58.2068155326283
1420, 74.98870783580446
1421, 78.92438741255569
1422, 72.75908702075276
1423, 61.12444340776756
1424, 52.02534321548774
1425, 49.37338029586408
1426, 55.24098752254372
1427, 53.54158893399858
1428, 42.812554452141285
1429, 30.377103560424985
1430, 24.130845835710716
1431, 23.692180360756538
1432, 15.72270739388432
1433, 8.135258467795211
1434, 6.2069207786880725
1435, -1.5717531285808946
1436, -5.574512063602015
1437, 4.617116564875232
1438, -1.317327607542893
1439, -13.474763893840873
1440, -2.663073207660773
1441, 9.290664338116585
1442, 13.627442263190005
1443, 9.598769204229257
1444, 0.8364508498696068
1445, -7.73598637379996
1446, -5.71402036502468
1447, 3.4035368274401208
1448, 15.479818455826035
1449, 26.07637996663766
1450, 27.994901919741324
1451, 15.68434425020746
1452, 12.054257416757537
1453, 11.912878074961327
1454, -2.2805988912386965
1455, -0.22057518116912433
1456, 16.21632565911318
1457, 15.275392310400548
1458, 20.83439437923107
1459, 36.897942120489915
1460, 34.15800418345066
1461, 20.71184157665357
1462, 5.5400818532230005
1463, -2.7866245807451833
1464, -5.501134463494964
1465, -2.8184380299978784
1466, 19.15829723926049
1467, 39.493983353521116
1468, 30.566973971630432
1469, 26.30509575414021
1470, 30.61107943348702
1471, 34.97650190741797
1472, 35.31777040750512
1473, 29.30875581088867
1474, 15.162973064656171
1475, 5.359599825204214
1476, 8.216190478182853
1477, 29.51840055479056
1478, 42.361599048286735
1479, 38.38280470882842
1480, 41.639499414324064
1481, 45.49002136247054
1482, 42.211894414422204
1483, 24.38746643935542
1484, 9.26192963024755
1485, 10.53334042519441
1486, 16.205670067139636
1487, 19.62426710206364
1488, 15.288997262358635
1489, 0.45604164942210446
1490, -10.227082449054706
1491, -0.14078379286274867
1492, 8.468822685294754
1493, 9.40008012555154
1494, 3.093724068418169
1495, 4.6804118186844335
1496, 11.721370023429017
1497, 12.291315060553643
1498, 7.50363645860989
1499, 1.3652839054955166
1500, 2.036032264247524
1501, 17.282791411553717
1502, 39.96986390402685
1503, 46.315217958499716
1504, 42.48265105918426
1505, 33.397647580381545
1506, 23.988114993107047
1507, 17.453399925601843
1508, 11.553471321170264
1509, -4.232524988897239
1510, -3.5966561229745366
1511, 18.05616095623145
1512, 27.484575914727202
1513, 35.11722999150152
1514, 41.243152551257026
1515, 20.099386740905402
1516, 9.49350346508686
1517, 21.184808716677026
1518, 5.231890672483814
1519, -8.609687758742211
1520, -4.0122879677492165
1521, -2.6355941214503673
1522, 3.6593329796933176
1523, 16.4387553339468
1524, 10.158881205631587
1525, 9.672848779683818
1526, 25.807286141084887
1527, 22.48008956057288
1528, 14.29865627874733
1529, 10.759203525044086
1530, -3.918162853353806
1531, 1.3542604200458754
1532, 35.46305424681191
1533, 34.344065528351166
1534, 26.358549414128674
1535, 32.95913835353326
1536, 40.479551463504094
1537, 39.73768871564789
1538, 28.47556887947121
1539, 18.430824414281005
1540, 15.712611979185567
1541, 21.62393720782893
1542, 28.842058566685637
1543, 15.274757876755984
1544, -17.421471523668515
1545, -19.572092933804697
1546, -0.6751642527215154
1547, 25.273596567598588
1548, 32.380435736595246
1549, 35.736239926386816
1550, 41.90261947790668
1551, 43.904602068782424
1552, 40.11467298707112
1553, 32.97159910111873
1554, 30.73819071402636
1555, 40.56111042509383
1556, 52.82148402318717
1557, 38.54295088518711
1558, 6.020252301148275
1559, -24.016511691495452
1560, -22.04966652450753
1561, -12.753984425813996
1562, -2.643225870511742
1563, 10.591910466212312
1564, 24.241536466357047
1565, 46.25819123408496
1566, 86.76203701457621
1567, 107.97647421205306
1568, 121.98421841454183
1569, 153.4552438779083
1570, 199.71955146627215
1571, 250.18680685548156
1572, 297.12249847654243
1573, 354.72990856938395
1574, 411.72929983251674
1575, 460.09738734342113
1576, 512.5376522566551
1577, 551.5962841235605
1578, 572.6375624688878
1579, 601.5475632874413
1580, 611.4155821515074
1581, 596.0478242492361
1582, 579.1108460089783
1583, 551.8531822995076
1584, 510.94757444019365
1585, 457.54243564311355
1586, 385.0813836530833
1587, 304.15269905365767
1588, 234.71838615679826
1589, 170.28002191065343
1590, 110.353720052668
1591, 57.27775130021496
1592, 22.8279934825116
1593, 17.399116616377796
1594, 40.1879503050327
1595, 38.1291798840648
1596, 16.07500700600258
1597, -11.351752520903801
1598, -27.07424805614346
1599, -18.69332913983567
1600, 1.3993595669123806
1601, -6.7633087839471955
1602, -7.496644698456748
1603, -0.3769512656576808
1604, -2.463066597000534
1605, 8.75073944645328
1606, 17.772421302948942
1607, 7.1665999348686
1608, 15.015209889225616
1609, 15.90094422779839
1610, -2.980065379459802
1611, -0.9957205244895704
1612, -1.317533687889636
1613, -5.986245175631211
1614, 13.098288583187468
1615, 23.390264219509163
1616, 24.517012982027836
1617, 34.27945254034262
1618, 34.15664361454833
1619, 28.994622899608203
1620, 29.101602272772197
1621, 35.64153000679289
1622, 50.08681776362664
1623, 64.61726942313544
1624, 51.323480922084855
1625, 23.640356370294057
1626, 3.627124431160837
1627, 19.660208652672964
1628, 29.699201843011906
1629, 32.859004518277516
1630, 39.87508435591508
1631, 29.049445122253474
1632, 26.19417001820875
1633, 39.499881870364106
1634, 19.131249262322854
1635, 19.104906052174783
1636, 39.43352250241924
1637, 24.328704591321184
1638, 15.48949815560286
1639, 11.035354330854489
1640, -3.3637860260541856
1641, -4.088113265347374
1642, 0.6642584738890491
1643, 4.973786701637891
1644, 15.758629848107375
1645, 18.185131459416425
1646, 8.10178759099972
1647, -7.864292607659536
1648, -11.09486531193761
1649, -1.6801720848939112
1650, 11.265595137092305
##END=



