##NAMES=
##LOCALITY=
##RRUFFID=
##CHEMISTRY=
320, -10.59884616708814
321, -5.978378778403567
322, 1.82201394941103
323, 12.906419716575328
324, 21.04963700380813
325, 15.643638764473963
326, 0.7932484470120471
327, -6.839754279684712
328, -6.92463369042116
329, -4.77832979342611
330, -1.3928753513650918
331, 9.722711653420902
332, 33.056804566997926
333, 52.80531279497063
334, 50.19934417712875
335, 33.8174121238103
336, 27.472921198856966
337, 29.81808423649727
338, 23.978096380072657
339, 7.860168510339008
340, -2.3260001972944337
341, -1.7347214698920652
342, 2.4783650157187367
343, 4.798620293361182
344, 8.514949189468553
345, 19.65884040484616
346, 34.885072057062644
347, 43.94924073364291
348, 45.45033814927774
349, 35.973739929167095
350, 15.100323783782187
351, 0.7352994280608982
352, -0.11023743857231239
353, 3.5608824894011377
354, 2.0191177042702293
355, 1.6214824967782988
356, 17.969942415540572
357, 47.48136633586546
358, 58.54324470503252
359, 48.45587609535096
360, 35.90541993878787
361, 26.598216501810384
362, 18.064873238266046
363, 8.753897778213286
364, 2.4473940270977437
365, 2.493021807216792
366, 6.063349031677262
367, 5.539288877318995
368, 1.0818581963235374
369, -3.72778328883669
370, -8.05548939856817
371, -2.0309890044559324
372, 18.32658327883064
373, 33.98316741235749
374, 31.679378476531383
375, 18.543717391169594
376, 5.058945725822923
377, -6.734861442203055
378, -13.802706145836055
379, -15.991589410909455
380, -9.950302363338324
381, 4.618636807636449
382, 14.858532195773478
383, 15.439384613840957
384, 13.6321658792981
385, 14.360000589130777
386, 14.587985042408036
387, 10.028664230514096
388, 2.6033848828392365
389, -2.0438764228574655
390, -4.418454599269808
391, -6.696292248801001
392, -8.960674926181582
393, -5.606734619383587
394, 5.339683134703137
395, 13.245336389834392
396, 11.433550622381063
397, 3.988980627757428
398, -3.7474902688832117
399, -9.056250854191148
400, -4.320952156388103
401, 8.06968538647152
402, 14.208335022908159
403, 12.886846048604639
404, 9.142829875617736
405, 4.1996830970497285
406, -2.843916658056969
407, -13.31262092468478
408, -17.01699821045304
409, -4.0980377512323685
410, 13.483144423999875
411, 12.47937488460775
412, -0.6106181804134394
413, -2.8310779250800806
414, 5.67393256605601
415, 14.556603875654673
416, 23.42727253343719
417, 44.227236498937145
418, 78.07524467407575
419, 103.35587730533325
420, 106.62963519920504
421, 97.20312082499458
422, 86.26472436119911
423, 74.10334656827536
424, 61.30921076972345
425, 48.79388710107469
426, 40.14883261245495
427, 39.48922405152234
428, 44.52544247000378
429, 50.68618109294903
430, 55.092060754863724
431, 56.62893365682612
432, 57.12080216568938
433, 57.84934059717534
434, 54.4471157463272
435, 41.10974565137303
436, 21.34851170669981
437, 5.704599929366395
438, -6.115727466435601
439, -11.453705761203764
440, -10.989023191065371
441, -9.326652482060126
442, -7.021511015048873
443, 2.0427908608330654
444, 20.937712124735754
445, 35.77283684090662
446, 37.26522239254018
447, 33.461857665565276
448, 34.399016806716645
449, 37.82457732505145
450, 38.75373217435936
451, 38.338918586713135
452, 41.57395805320584
453, 46.67597589090201
454, 38.16678314902583
455, 14.677819340227416
456, 0.5546476350345984
457, 1.6728838968406308
458, 3.427784389391036
459, -2.2629324363415435
460, -8.443830652812267
461, -8.329697987752752
462, -5.787195163750312
463, -7.253626579431966
464, -10.630980422554785
465, -9.435547600239715
466, -4.293196567266932
467, -0.47039823277555115
468, 1.6613634031905349
469, 2.540396366269306
470, 2.544547340562076
471, 6.656469233878852
472, 16.50102981490045
473, 20.077116973165175
474, 9.422695726328584
475, -1.8849803808980141
476, 1.5445708016663957
477, 10.960094631590437
478, 8.724772983310231
479, -0.2248071013691515
480, 0.8199757757811312
481, 9.826359943988791
482, 9.420263079527103
483, -1.1759077381029783
484, -6.271706503830501
485, -2.836799054419771
486, 2.5566271940870138
487, 7.675806872470275
488, 9.898716769399925
489, 7.720909527705771
490, 3.4674070288933763
491, -0.051145119929515204
492, -2.2804281233961774
493, -1.872049591303039
494, 1.2830261073736438
495, 7.610349301875431
496, 14.595382263756164
497, 11.810179822104601
498, -0.2970751253137678
499, -9.606800635947366
500, -14.58588078809089
501, -15.304267728395189
502, -11.689930429643482
503, -3.1335871131432214
504, 11.318189866139164
505, 25.932325919426603
506, 33.99209216579675
507, 38.37370879477885
508, 42.71142733968691
509, 47.31498505968875
510, 52.77001063912576
511, 59.36891484520402
512, 67.94271523723319
513, 77.23791797459535
514, 81.17742367654819
515, 79.68567116499798
516, 77.95803264580218
517, 76.9893863257812
518, 75.74798408028073
519, 73.75878775809315
520, 66.37247139229339
521, 51.42535930818394
522, 36.3204792626716
523, 30.00647189615347
524, 31.41344144579807
525, 40.187991063966365
526, 51.17510005782924
527, 60.93876827381018
528, 63.76612099163822
529, 45.387935954876866
530, 13.371550315060631
531, -0.15384476512463152
532, 3.1658516735647027
533, 5.586882703109495
534, 5.534449285245955
535, 12.1653627487226
536, 25.71697286310291
537, 23.44363870853931
538, -1.7447154574110755
539, -16.819084039671907
540, -6.598285443875284
541, 3.9748750543594724
542, -3.2216678459194554
543, -9.734735303615253
544, 5.034445963128746
545, 25.79485323350991
546, 24.761946921285016
547, 10.452940911290625
548, 3.5008348282699444
549, 2.9906229857629114
550, 1.965094886375482
551, 1.9265469883293918
552, 13.006289602644756
553, 34.94233864085027
554, 47.71039935715271
555, 48.06599354355649
556, 40.124191832158886
557, 25.587515396249728
558, 15.514489129615868
559, 15.55727548610048
560, 16.02539656414001
561, 12.55157383552114
562, 6.861801802584523
563, 0.9404735104972133
564, -4.367167077768045
565, -8.042420608788689
566, -10.372252013254183
567, -11.467484873242483
568, -11.273709611556114
569, -9.431458926379491
570, -6.703563210308403
571, -5.5329875748138875
572, -4.994746108249728
573, -1.2758671770261572
574, 5.766604486325832
575, 13.614094557855879
576, 20.97853907518811
577, 26.06986589954704
578, 28.188979578668295
579, 23.59960316664956
580, 11.77463236355743
581, 2.63798288386306
582, 0.1117390751091989
583, 0.5200842023223231
584, 2.2224033164629873
585, 8.964050476656666
586, 23.791922580030132
587, 31.992839203928725
588, 21.167041633959798
589, 3.506792186965413
590, -5.7396868466407795
591, -10.263637579747865
592, -15.059974678903018
593, -14.728293316532472
594, 3.331586332120878
595, 29.729703640955904
596, 32.38105859148163
597, 16.89188966890015
598, 9.5032960954818
599, 11.905258820280778
600, 17.140722258743153
601, 23.279630106887453
602, 31.28767777927851
603, 39.38103356280226
604, 31.54065825341104
605, 6.429569271703258
606, -9.748707531813125
607, -11.89162975463023
608, -9.750472490753054
609, -6.549617341340763
610, -1.895013127897073
611, 4.628429394391787
612, 9.131443267593113
613, 8.597377703421898
614, 8.1364861179959
615, 12.2245806738606
616, 16.37366239754192
617, 17.239850226525505
618, 17.095453366378024
619, 18.583090581060787
620, 20.42870674298638
621, 20.76881647534401
622, 19.863009269829035
623, 18.207764703032353
624, 14.577053243325281
625, 6.243526347961506
626, -3.3172001113784972
627, -7.138987455979986
628, -6.200538402100847
629, -3.7757013620616817
630, -0.5842491389598763
631, 0.9078031268450104
632, 1.3335811380834457
633, 4.46918378311284
634, 11.210212079159191
635, 22.753497949190205
636, 36.83629757227345
637, 44.40239351970331
638, 43.5268547961432
639, 33.33707279647797
640, 15.010454603458129
641, 6.581265999126117
642, 11.334153325326952
643, 19.132121902435756
644, 25.015127567608033
645, 25.123141747077625
646, 18.023827845690903
647, 7.570780024555916
648, -3.531113734909468
649, -10.206081941365937
650, -9.763945833551588
651, -5.982874842472484
652, -0.9575741305297925
653, 1.143550747154677
654, -2.9494407120614596
655, -7.649687550814178
656, -8.206692018719423
657, -6.898439873238658
658, -5.85787900205014
659, -1.2323774746300842
660, 11.882682835520882
661, 28.010206152704995
662, 36.70025305327954
663, 39.860693104447364
664, 40.53840167545104
665, 36.43283029815484
666, 23.437232018848135
667, 7.21313661198792
668, -0.16686465138263884
669, 0.4104690483268314
670, 7.996687873795054
671, 19.13715419902428
672, 22.7277295373824
673, 19.179050667741194
674, 10.92330441799777
675, 0.6435590942687668
676, -3.889266469330323
677, -3.9406552176556033
678, -3.9896376528881774
679, -4.172103852719829
680, -3.6673012126525464
681, -2.7625518776940226
682, -3.0417961261991877
683, -4.009186085930651
684, -2.675631869746667
685, 0.8702590177686034
686, 4.160254692489161
687, 7.91930119789231
688, 16.537964064158587
689, 27.969697150661887
690, 31.77780779859404
691, 27.407211745224686
692, 21.589386391287007
693, 15.936884490191005
694, 13.516287942362396
695, 15.842263413704586
696, 18.677555182001925
697, 20.964407045816642
698, 18.93825268647379
699, 12.531620139845927
700, 7.7097402560070805
701, 6.290142278552139
702, 5.670084957893323
703, 4.803632264407042
704, -0.21252909983013524
705, -9.692165245086926
706, -13.438894601329594
707, -8.56507681411449
708, 9.701833888707824
709, 42.06832981788921
710, 62.74495934492688
711, 65.432239037194
712, 56.17088981398274
713, 37.32007423430014
714, 16.579725776399755
715, -0.6280827020509605
716, 2.699796957392664
717, 29.383539276909232
718, 40.512321277164574
719, 26.334085193919236
720, 11.303025240726583
721, 3.670335715519741
722, -1.885375618006492
723, -6.535592766695572
724, -0.3853445286435999
725, 18.796893419586922
726, 30.129847913645335
727, 28.3834637784571
728, 29.86512026255059
729, 39.014268217570134
730, 48.18041870033494
731, 54.3861932571067
732, 49.59612834188101
733, 32.09492734929563
734, 10.746335096632265
735, -9.641303954078012
736, -18.0287185889365
737, -12.605050850245334
738, -6.325128251595743
739, -2.0390378802831037
740, 4.785389715154906
741, 14.789269575529488
742, 15.012342375229764
743, 3.770597052106041
744, -1.8028960576816644
745, 0.9192408113794954
746, 1.2684691969393498
747, -1.6142438870574551
748, 8.303908829277589
749, 32.20123753247344
750, 38.28814516626926
751, 22.54608014890664
752, 8.251089713453894
753, 0.5032960771482067
754, -6.531654157558023
755, -13.087985567850865
756, -9.715107824365077
757, 2.660242884701802
758, 5.333786860085183
759, -2.6434606464899844
760, -5.206235053592991
761, -1.3102723635065558
762, 2.2481567154973163
763, 5.542395632847274
764, 12.770372811238758
765, 21.902891513739178
766, 23.896349202278998
767, 19.707625357282723
768, 17.875072327134603
769, 17.90124462021413
770, 14.379488808918268
771, 7.4397895955517015
772, 0.07070347154558476
773, -6.1757436841380695
774, -5.358565968700987
775, 0.3982372342411509
776, 4.082329929078696
777, 7.280657387526844
778, 14.605030120813808
779, 20.966777017715685
780, 15.854062936696664
781, 8.652618535459169
782, 20.40015686836705
783, 37.54474996493764
784, 35.70460502581568
785, 25.69126100544827
786, 25.93288253794867
787, 25.739990562181674
788, 9.444849422783136
789, -4.953669650201846
790, 2.571932425075829
791, 15.047434282688755
792, 12.98363634042721
793, 5.899761029438878
794, 3.1920132403499792
795, 1.284948799219137
796, -2.586620679093585
797, -3.3360159192252468
798, 2.634921397773951
799, 12.378563820115687
800, 23.4304926037687
801, 31.32725661684117
802, 33.68219932615125
803, 27.078105742093612
804, 10.705499463395654
805, -2.440739368810455
806, -8.990061617476158
807, -5.799061958622815
808, 7.359348756949657
809, 18.459673710036213
810, 22.86008130970049
811, 17.498155659463464
812, 3.8135340374055886
813, -3.8634771466938673
814, -4.6320636249706695
815, -3.260808141873895
816, -1.0030156417753915
817, -0.6850116331779645
818, -1.636937911015366
819, -0.35872695773218766
820, 3.9530882360459145
821, 12.774731296877917
822, 21.812574828287552
823, 21.330684771726055
824, 15.896448045177976
825, 15.617191974625484
826, 18.50738655122018
827, 20.827637577924634
828, 21.79565773057061
829, 20.445954588446966
830, 17.98804507600221
831, 15.695321872065051
832, 11.4821538342228
833, 3.691702530723205
834, -1.1403221481984929
835, 0.31332086834800066
836, -1.1967411990181063
837, -9.984485938451144
838, -9.593205947272281
839, 5.912299393316516
840, 18.0792471173354
841, 20.464689001056286
842, 21.318170144180385
843, 21.916327695442305
844, 15.648821097310702
845, 4.7560440556612775
846, 9.718327686799284
847, 28.138635981924836
848, 33.54127755631612
849, 27.072304027253267
850, 22.014051877125212
851, 17.141434122436976
852, 6.6543568336026055
853, -2.1617632811794465
854, 3.4995333432812004
855, 13.771968897915713
856, 11.874592346499185
857, 3.629742109838844
858, -3.729509380714944
859, -8.359402299758813
860, -8.565974855613376
861, -5.404813334409482
862, 0.7465410869549487
863, 9.212234437944744
864, 20.09283894008763
865, 30.254810279499225
866, 38.815883778970374
867, 44.89960597320783
868, 46.77932132079127
869, 33.61053899039143
870, 7.653176386381119
871, -7.452167796006961
872, -10.983156669217124
873, -7.130659170720492
874, 3.3773168505638296
875, 19.517737098973384
876, 33.57037136704389
877, 30.617655785772058
878, 19.348548861077916
879, 13.508782637290324
880, 7.377123663090742
881, -4.535110629768724
882, -10.152844815541812
883, -0.43231755162923946
884, 7.51384299192091
885, 4.509125181644322
886, 2.8821034752008927
887, 6.758604681521319
888, 12.178170393651726
889, 17.242216562301337
890, 22.009699147994525
891, 24.727632746303925
892, 16.733031879573446
893, 3.10764090784005
894, 5.617570649549407
895, 17.029451877029032
896, 14.151061982830925
897, 3.9098280711473308
898, 0.4088188092166547
899, -1.6362200031705925
900, -8.55275172200777
901, -3.892910010287551
902, 25.7703158590607
903, 43.79078273002165
904, 31.369768771922054
905, 19.880946832470045
906, 19.363934858017046
907, 8.694970732099819
908, -11.600134895186557
909, -9.697443788296368
910, 12.497438280634242
911, 22.845646105182368
912, 22.72042232636045
913, 30.720198385320145
914, 39.40611103825472
915, 31.869945803303608
916, 17.39498715680361
917, 8.85403123009769
918, 2.259446777237372
919, -7.0333924587473575
920, -7.57978173632705
921, 6.961720482047667
922, 26.531497379597113
923, 45.380343079161776
924, 57.009747034111115
925, 60.02738707313006
926, 55.9429510773607
927, 45.44471896460982
928, 30.194779400354264
929, 13.535789621613958
930, 4.712599042786678
931, 1.8664755419483754
932, 2.5138612694686344
933, 5.314362260512553
934, 9.091050514794233
935, 10.645523611043927
936, 8.26220520533002
937, 2.550468042616558
938, -5.213615980740542
939, -7.438861528936286
940, -3.5288913513697935
941, -2.283410438253668
942, -1.7905047358142383
943, 10.855261080414266
944, 27.826429663003637
945, 26.483695354189194
946, 15.771125561976987
947, 11.247694141686452
948, 6.6500845737114105
949, -3.320895399229812
950, -9.406825030521986
951, -6.713656876171854
952, -3.9493437295211606
953, -3.5295411513136514
954, 0.07144652329111523
955, 8.531343542136028
956, 22.94456748914945
957, 37.577257181007326
958, 37.57986691250585
959, 30.410295389012163
960, 32.041035710332835
961, 31.690810959459668
962, 16.76839853449019
963, 4.090633402766116
964, 4.646455267490637
965, 2.6600381964794906
966, -6.841110289797825
967, -8.01435692369455
968, 0.1788438274645614
969, 2.5631043756700365
970, 0.4669574305773949
971, 4.210624836072839
972, 11.207073413407443
973, 14.04919436556338
974, 15.054671260602163
975, 16.917994246716717
976, 15.448468082599675
977, 8.403961246152448
978, 3.576962257797959
979, 3.382936775122289
980, 0.33444389610804137
981, -4.875171722743744
982, -0.7458453446517979
983, 9.99070678803173
984, 15.275837063518338
985, 17.867440460629496
986, 23.038411329658175
987, 23.54157834979378
988, 13.320494778613238
989, 1.632533355895248
990, -6.305480772898363
991, -5.789479957645199
992, 1.9792124858522584
993, 1.352476066384952
994, -5.050225687855118
995, -0.7497497233539434
996, 9.657513619502197
997, 15.444065774150658
998, 22.86500009708061
999, 39.30150319302834
1000, 46.57546795432222
1001, 35.42840775273203
1002, 20.301130727085138
1003, 6.14496365154173
1004, -4.599501160070076
1005, -10.72003793771296
1006, -6.083950523240674
1007, 5.1891700796018085
1008, 14.248580361643917
1009, 16.6191803569659
1010, 8.64340857054458
1011, 2.7887812381159165
1012, 5.447102079746628
1013, 4.748765458279877
1014, -0.26792814317104785
1015, 7.457495837173838
1016, 25.02052480842167
1017, 30.604527437645856
1018, 29.439796770521752
1019, 33.47639088566939
1020, 30.506070804011642
1021, 9.88481538319752
1022, -1.6795821923481071
1023, 4.898074697714719
1024, 6.252852813920526
1025, -1.518976687467557
1026, -4.162350356750267
1027, -3.584516033454065
1028, -8.916293226356856
1029, -11.400849791839619
1030, 2.072194157462036
1031, 17.12996602080193
1032, 22.908468923829787
1033, 25.300782424531462
1034, 25.40004093877542
1035, 15.637402366630567
1036, 0.5740942837451257
1037, 1.058072700752291
1038, 8.462094545159289
1039, 3.611980728127719
1040, -2.446298925612382
1041, -0.5312794939875403
1042, -1.045386091672981
1043, -7.4532708345079755
1044, -6.303196832029698
1045, 1.8998412715034192
1046, 0.870877569373306
1047, -4.28165082880696
1048, 1.4906416561891547
1049, 13.977422496349163
1050, 26.982631696213502
1051, 31.82895237301136
1052, 24.64669357371804
1053, 13.99913247458494
1054, 2.359659959761302
1055, -9.469039717060468
1056, -18.639265887575903
1057, -16.693854825849712
1058, -14.486342981530015
1059, -24.859937925300073
1060, -27.355862157234014
1061, -12.05255703845728
1062, 0.890754020385657
1063, 7.073767685868461
1064, 9.153605525232251
1065, 8.08861748215213
1066, 4.909506983414758
1067, 9.523256355612375
1068, 33.71241636503578
1069, 67.96913944003268
1070, 108.68655591487959
1071, 142.39962149127973
1072, 168.2632287345548
1073, 190.2205624789533
1074, 211.34244782143378
1075, 237.13966984719855
1076, 259.4797254969501
1077, 270.34995573647575
1078, 275.4949457765979
1079, 276.72677715533405
1080, 267.07330410552413
1081, 247.37750081295326
1082, 226.22083030069848
1083, 203.5980430814866
1084, 178.16668547233053
1085, 148.3059370965109
1086, 112.7563652360418
1087, 71.11754810874845
1088, 32.52571556373664
1089, 6.130665662633874
1090, -6.2222019811138125
1091, 0.5588810370716146
1092, 7.760749401689509
1093, -8.427669102773734
1094, -21.22552960070243
1095, -17.20867847440286
1096, -8.610510420388437
1097, 2.168098716824943
1098, 16.376329975259296
1099, 23.360859748601115
1100, 3.4570232098076303
1101, -15.122500471867397
1102, -11.957376526787812
1103, -5.059821718216199
1104, -0.811301243144726
1105, -0.10996590013132845
1106, -2.0446519580384575
1107, -4.0561684298904765
1108, -5.442065084719161
1109, -5.4846586500225385
1110, -5.270463819474571
1111, -5.212728169722595
1112, -4.416486362763408
1113, -2.323796099412448
1114, 2.218897506353642
1115, 7.349265423032193
1116, 9.174595368240716
1117, 4.645355351626904
1118, -6.738170868570251
1119, -9.726876373060122
1120, -3.128405708738228
1121, 1.2327255757177227
1122, 6.535628117606393
1123, 20.80858625851579
1124, 27.179373436176547
1125, 14.676355832297304
1126, 4.469920392726863
1127, 1.8029839247424206
1128, -4.306479166844838
1129, -9.13090309818358
1130, 0.9738688322254347
1131, 15.775163707131014
1132, 25.26216332567128
1133, 31.43088279883591
1134, 34.57510730169406
1135, 32.37398084154643
1136, 29.633923924698365
1137, 37.872130971710476
1138, 39.98508056039714
1139, 21.278690578091982
1140, 5.890938612809805
1141, 2.6646408187727957
1142, 6.339722256969026
1143, 14.706367591665867
1144, 23.00001085878671
1145, 22.927416954187265
1146, 8.052362506098689
1147, -3.9470970325689905
1148, -7.069758888066644
1149, 3.2992811027429525
1150, 16.125324091928178
1151, 3.62440570427043
1152, -6.61924549415312
1153, 6.730388206620319
1154, 23.842958318075716
1155, 36.58544351363207
1156, 44.0322416777085
1157, 41.20791334628075
1158, 18.896951440995963
1159, 2.844872311670315
1160, 10.47255243933023
1161, 17.717715707445677
1162, 16.855099000718155
1163, 10.833140787529146
1164, 0.2876838617416979
1165, -13.95099026379603
1166, -14.516085291588979
1167, 6.629504220314175
1168, 20.682199266010457
1169, 23.74407420606576
1170, 29.718951682167926
1171, 28.778522194516427
1172, 7.771607336798297
1173, -7.23271086488262
1174, -6.556848766438861
1175, 3.840134877689252
1176, 20.744572474569168
1177, 35.984733344372216
1178, 37.66267744297761
1179, 16.590920705342796
1180, -2.4172662582157045
1181, -9.216231180776504
1182, 2.98374494693212
1183, 26.488420418916803
1184, 43.354481366715845
1185, 42.47041242002251
1186, 19.437189064529775
1187, -2.5909124976956264
1188, -14.463082587208874
1189, -5.64625180705616
1190, 8.681330705750952
1191, 10.655773435325727
1192, 16.41822814045895
1193, 28.104614475672633
1194, 25.83864179896591
1195, 16.66183413358158
1196, 20.962253098668498
1197, 19.905674359798013
1198, 2.201727592011821
1199, -4.465760742681823
1200, 1.9196483290963897
1201, 6.5633823320133615
1202, 12.03590761387386
1203, 21.362264010309218
1204, 24.99705799303183
1205, 19.543196953671668
1206, 8.739678224643058
1207, 1.3370559831751052
1208, 10.635528744031717
1209, 18.596399313002166
1210, 14.569279946754023
1211, 12.140195818665461
1212, 11.88391172710567
1213, 5.864837673744887
1214, 2.5776127005387934
1215, 9.765720119414254
1216, 16.199337212397268
1217, 18.015794383052253
1218, 15.596486010987064
1219, 7.923282255020467
1220, -6.2761979281358435
1221, -13.198548402135884
1222, -7.2311764469993705
1223, 4.9656285305652546
1224, 17.18496052765181
1225, 15.622821634616457
1226, 4.05475881350435
1227, -11.9878848289502
1228, -14.0212927203047
1229, -2.351265217484979
1230, 9.031998762196281
1231, 16.764756676610205
1232, 18.161963858475247
1233, 11.915357855081993
1234, 1.5484282084610186
1235, 2.5900248232292142
1236, 7.660735554343773
1237, 4.788128669337539
1238, 1.4243495448640715
1239, 1.3106501063550695
1240, 9.710981289505526
1241, 21.141621644567522
1242, 25.2783909740765
1243, 18.667507768780297
1244, 2.430723946063381
1245, -4.929953661720901
1246, -3.6653607567375275
1247, 0.7201338380900779
1248, 5.60055747393767
1249, 8.96462531820498
1250, 5.270725159118911
1251, 0.9759116322165937
1252, 12.43648281904052
1253, 26.323929190251647
1254, 30.64952432821883
1255, 32.45492381086592
1256, 32.66968248242961
1257, 29.062593278031954
1258, 28.924530984635794
1259, 37.109444128441055
1260, 36.765683547783055
1261, 28.384251653224965
1262, 27.569751357145833
1263, 28.21398433353852
1264, 23.891987248426176
1265, 19.10456652870971
1266, 14.05796296659355
1267, 6.478291388185653
1268, 6.847148772033279
1269, 24.91177831491791
1270, 34.851756306144125
1271, 30.69718236991298
1272, 18.738247670371948
1273, 9.77860625703147
1274, 14.267619697693817
1275, 15.627862043873847
1276, 10.388360788113005
1277, 3.3885263810809647
1278, -0.3112468374879427
1279, 2.8861986328818148
1280, 7.531555077634948
1281, 10.55218589048286
1282, 8.726618312686242
1283, 2.944036372258097
1284, -4.4337120092759505
1285, -2.490435625976943
1286, 7.517552408661459
1287, 12.018718260563446
1288, 17.462947044685734
1289, 29.50299426237507
1290, 31.473027516959974
1291, 21.25701195880447
1292, 5.222573612254791
1293, -7.711501516864246
1294, -12.029461296705904
1295, -3.6745180859013544
1296, 13.713108164382902
1297, 27.175488560405256
1298, 25.6651869663267
1299, 6.031887208959915
1300, -2.7072645797040877
1301, 1.8352068301219333
1302, 15.113987804285898
1303, 30.140927809682807
1304, 40.07613151882583
1305, 27.031974684437955
1306, 2.61500135159622
1307, -8.768794271609295
1308, -8.440363828739464
1309, 0.7181417551649929
1310, 7.500365658981082
1311, 9.06738359140661
1312, 4.069469942116143
1313, -1.4920215802565053
1314, -6.12598988312061
1315, -10.222358013341704
1316, -7.59066494280728
1317, 7.532851297539992
1318, 26.018118925443787
1319, 39.94164045149864
1320, 38.13040487911735
1321, 23.340663503827614
1322, 1.3572190926252006
1323, -3.0290995455175107
1324, 5.921040402489552
1325, 12.182765166575791
1326, 11.731452514899047
1327, 5.217091126148034
1328, 3.8385165312311074
1329, 4.385467530825849
1330, 1.0430798761399274
1331, -2.991734156254097
1332, -4.191857736642078
1333, 6.143942815991522
1334, 19.911368819372342
1335, 27.39238181246583
1336, 24.859451902113847
1337, 12.044077690053768
1338, -9.180553680234198
1339, -13.437735654674498
1340, 6.726159047709416
1341, 14.975001863516468
1342, 16.264283021684946
1343, 25.86319842065643
1344, 25.94382743674862
1345, 15.458604915217052
1346, 12.81899031724356
1347, 7.118615739049005
1348, -9.076339812375977
1349, -16.863810480021016
1350, -12.487785193097693
1351, 3.961637190819488
1352, 21.033429579094445
1353, 31.943496709857072
1354, 38.010464836822734
1355, 36.096739618952256
1356, 23.074873927335034
1357, 9.159940102831001
1358, 0.559714622428487
1359, 2.178439983065914
1360, 5.564761294177288
1361, 6.4947787825885825
1362, 12.39244249762055
1363, 17.02892464721458
1364, 11.447033311776522
1365, 14.910544615099525
1366, 25.18847499720573
1367, 13.452419151156505
1368, 0.9645128600737962
1369, 2.8015510242155415
1370, -0.4093709200749345
1371, -1.7228268069258093
1372, 15.680012451847233
1373, 21.555231072005085
1374, 9.940350385698935
1375, 2.2197938215203976
1376, -0.7977994456957731
1377, -0.35061880430748715
1378, 3.753964302020904
1379, 6.006969318025654
1380, -3.437746873738547
1381, -8.835022021782038
1382, -5.351719394229576
1383, 3.364428941025494
1384, 11.018784189867915
1385, 12.958679527041795
1386, 16.845509277527867
1387, 23.668304667434086
1388, 32.120936391529085
1389, 32.362479589014356
1390, 21.946779343388243
1391, 4.715584420294817
1392, 0.3079548404232355
1393, 16.184961884042423
1394, 20.758516361416923
1395, 19.662350651274096
1396, 26.325141194131334
1397, 20.832267007060523
1398, 8.228120431294656
1399, 17.387454236243116
1400, 15.340007795299016
1401, -7.020752041840296
1402, -4.584783031075858
1403, 3.975809368084697
1404, -3.7932628342314274
1405, -2.7808623661979937
1406, 3.8818638051450307
1407, -0.6447943957962252
1408, 0.6413481877073082
1409, 10.075245340132824
1410, 9.694533879233973
1411, 9.014928477356875
1412, 16.629359412419035
1413, 29.45523064011536
1414, 36.954613495449735
1415, 27.130171884755896
1416, 17.52059215739598
1417, 9.608011947702607
1418, -3.30176621305327
1419, -8.390787720053822
1420, -2.9810983176006403
1421, -0.3520573376237053
1422, 6.318734259303824
1423, 21.956206958571897
1424, 33.17668511271381
1425, 30.402208228915242
1426, 6.452748922770525
1427, -4.227808393660666
1428, 0.2546804976235535
1429, 5.324212622170535
1430, 12.482646356295618
1431, 17.569291715647296
1432, 5.798576628413684
1433, -6.618788230113182
1434, -8.546663506807477
1435, 0.8793060817872629
1436, 17.530382859482984
1437, 34.47056149497041
1438, 44.81553847881116
1439, 42.26387131333934
1440, 19.924967455869364
1441, 3.7737253608884203
1442, 0.4808054021278849
1443, 0.5851896194833444
1444, 2.311200910958405
1445, 3.5891297895408343
1446, -1.57892431281698
1447, -5.2010912701425696
1448, -1.681159356042599
1449, 0.3009054045727453
1450, 7.198693147496556
1451, 25.174296446340463
1452, 22.014480241550928
1453, 3.187498322700435
1454, -7.004738892874798
1455, -9.922278605417318
1456, -5.29791855003225
1457, 8.830907147494031
1458, 12.001780696050105
1459, 0.7931855305581621
1460, -0.7364434185761866
1461, 1.1601378731630803
1462, 2.681641822791562
1463, 11.35026119730469
1464, 15.491011209079147
1465, 6.211227218559884
1466, 3.054582082420893
1467, 6.682732652153618
1468, 14.096788815777586
1469, 24.427524198141782
1470, 29.510677231055865
1471, 16.380497990889353
1472, 2.4307166015234998
1473, -5.042727710011945
1474, -4.13615571444177
1475, 5.430050722943179
1476, 18.770197219886768
1477, 18.615524112784556
1478, 18.917519192551026
1479, 28.86010353761958
1480, 43.16285517070537
1481, 59.33719996012576
1482, 69.03288532306897
1483, 40.556837741892195
1484, 2.841800879743687
1485, -15.476007358424226
1486, -17.26361059107103
1487, -4.224775008588267
1488, 19.46229482626086
1489, 24.728618267395632
1490, 16.895172598766067
1491, 11.033061467101788
1492, 7.650527823253356
1493, 4.853604072612029
1494, -0.8922596561410501
1495, 3.4342048524944175
1496, 12.641211572331713
1497, 9.443341466717811
1498, 8.213472652094651
1499, 7.997236969635878
1500, -3.0952892033443504
1501, -7.770640580018039
1502, -2.71814637042894
1503, 4.543938967338249
1504, 9.144694665789984
1505, 10.75957301172457
1506, 15.737312470907568
1507, 14.579433091019041
1508, 5.829301876220484
1509, 0.3383827823087131
1510, 1.6496876648733405
1511, 9.897846166235922
1512, 18.718654841435523
1513, 17.005883285688924
1514, 3.0244796223742014
1515, -6.908188008653497
1516, -2.6703310559856845
1517, 16.202105289505653
1518, 27.094345769276856
1519, 23.66706035706852
1520, 6.903826482692239
1521, -7.698820169382657
1522, -11.355830396584793
1523, -2.973283911800536
1524, -0.22554997701263346
1525, 7.725876597947035
1526, 24.5676377910645
1527, 24.446947809508742
1528, 18.406492889866286
1529, 15.621799364309595
1530, 13.249787648305983
1531, 13.867008028621512
1532, 17.463417071646063
1533, 15.358722072264072
1534, 9.713705971381842
1535, 3.205401767020021
1536, -1.7727530827690998
1537, -1.2754932250149977
1538, 3.594698249220187
1539, -2.299279732089417
1540, -0.4087769315593732
1541, 13.298091071749923
1542, 3.3586168140707287
1543, -2.3464052738479495
1544, 6.833454589163125
1545, 4.5971881308882985
1546, 7.210943406657407
1547, 15.479378225554797
1548, 0.881173819009291
1549, -8.069405379085765
1550, -0.30951090629741884
1551, 12.787863109930072
1552, 20.664990738598135
1553, 20.463568199407064
1554, 17.375655747114706
1555, 23.08018384851482
1556, 31.123178755555273
1557, 15.889852431874829
1558, -3.947391111904608
1559, -20.315458296276574
1560, -31.515582029659527
1561, -23.7322305695792
1562, -5.362194739761435
1563, 1.0985514681764244
1564, 4.045373323206604
1565, 4.825312228803
1566, 2.094656380262336
1567, -0.51168640924584
1568, -1.0206377294465483
1569, 1.793979680106986
1570, 5.4870407600359385
1571, 16.791841360622243
1572, 41.26852616708095
1573, 66.88641048188617
1574, 87.41096045075767
1575, 103.5758381326632
1576, 118.28185995573313
1577, 136.35147491759813
1578, 159.9178837727369
1579, 186.21721445337846
1580, 213.23147473449978
1581, 235.9390836034229
1582, 243.02228147157678
1583, 231.43478454875594
1584, 207.4293067728105
1585, 186.8763742654745
1586, 176.3752491218097
1587, 170.17729227416567
1588, 154.49660021835018
1589, 117.93330517418781
1590, 67.77354302696608
1591, 25.35107104856388
1592, 1.420116052761955
1593, -8.993114672859178
1594, -10.92777828745966
1595, -2.2788724858696696
1596, 3.921869254069634
1597, 2.1344739726326907
1598, 1.134769040482297
1599, -7.556056665690903
1600, -18.380851839360844
1601, -9.07493610339941
1602, -0.15237848309868696
1603, 6.341621648099363
1604, 15.625737605261975
1605, 7.376960524812375
1606, -4.4078209368744865
1607, -2.0455624477172023
1608, -4.478291889945012
1609, -0.8918439390482717
1610, 13.730495624438163
1611, 17.096424383995213
1612, 19.495157318921997
1613, 24.865913316329966
1614, 27.194255351393508
1615, 30.96616499801405
1616, 28.678689887114388
1617, 7.201392115798171
1618, -11.373254511868481
1619, -18.184186777405216
1620, -8.541985553524341
1621, 13.534495132784627
1622, 29.89209561961752
1623, 29.318782497873258
1624, 16.589456586581036
1625, 3.3551326023159618
1626, -1.9436954293289546
1627, 6.097905039104717
1628, 21.244570649669754
1629, 37.25688312644934
1630, 47.24114356588325
1631, 38.12791872552418
1632, 21.669549242065614
1633, 9.737766198472627
1634, 7.043652770780795
1635, 3.4591887506045396
1636, -2.5181730784198635
1637, -3.4110807498470876
1638, 2.8933298359107766
1639, 13.376252713703025
1640, 20.77186495697265
1641, 16.12636144640237
1642, 1.9417132154560477
1643, -12.653509455609196
1644, -9.775357879012176
1645, -3.4780654282112664
1646, 3.2173537185369696
1647, 14.621325024626913
1648, 10.001486194703034
1649, 1.223019860108252
1650, 1.914468597932455
##END=



