##NAMES=
##LOCALITY=
##RRUFFID=
##CHEMISTRY=
320, 11.34740583203984
321, 30.597728473980624
322, 42.85975560555289
323, 38.35772331419457
324, 26.929002516939363
325, 25.842702023923266
326, 30.43517518344106
327, 21.492527721923125
328, -0.46582376181504515
329, -12.004124778530695
330, -8.582845801408894
331, 0.33507019627086265
332, 10.265619431089817
333, 21.1234064653695
334, 32.84285749875016
335, 41.94085639951982
336, 38.8198950469623
337, 24.894576951314775
338, 12.36387003619302
339, 3.656275907777399
340, 5.424929728041661
341, 20.20913487266762
342, 32.39345205919699
343, 29.575630053281202
344, 17.922394229344718
345, 8.851881570971727
346, 3.471752445790571
347, 5.473538170878783
348, 15.002445666374115
349, 27.82528771633315
350, 42.750061779509
351, 48.53975998590204
352, 39.40451204876035
353, 27.299931924090288
354, 25.762200031734665
355, 31.310697574650476
356, 35.565603049598394
357, 38.217730712807224
358, 39.552302545590464
359, 39.12672831867121
360, 30.692478128156836
361, 12.526554016409136
362, -0.09431361292035945
363, 2.418570849608386
364, 11.815651054594127
365, 16.21404945302629
366, 18.547183206565023
367, 27.201694163811226
368, 40.31941694282932
369, 44.07886392815499
370, 37.151220382724205
371, 33.97187477950638
372, 39.404806322063905
373, 42.57985947630732
374, 36.00481802326021
375, 24.109125735235466
376, 13.40646669156422
377, 3.8215200978188477
378, -4.653307447833413
379, -11.607421510655513
380, -9.968692219843433
381, 1.0180183786228554
382, 11.150997633959832
383, 16.453839157278708
384, 19.575244348758133
385, 22.308630559014546
386, 23.160694627670182
387, 20.021824275302606
388, 12.875024746336749
389, 1.7151443054449373
390, -11.17941802557516
391, -15.506010535496443
392, -10.454256706277192
393, -2.3488422621135214
394, 7.4481111485401925
395, 15.694940300023973
396, 20.31749797172506
397, 19.36932939017015
398, 10.495450722510668
399, -1.4210077914181056
400, -5.086076133680308
401, -1.5588910917990688
402, 4.321326859628698
403, 12.621884061069522
404, 25.1446591537906
405, 43.22701612116771
406, 59.51002331719792
407, 71.70209380862525
408, 80.41806387777524
409, 86.21762370915258
410, 93.31910513986577
411, 109.24948789549899
412, 130.99471879482917
413, 148.10365852029918
414, 160.04041116111102
415, 168.67061704122034
416, 174.56343106519898
417, 181.34003440268725
418, 190.27401742600478
419, 204.6387961762348
420, 226.46963403228892
421, 248.17544670512825
422, 260.630238625075
423, 264.44552937703065
424, 261.0217626534168
425, 252.1894293102937
426, 245.12863700875687
427, 239.7649406002006
428, 229.49411240740164
429, 213.18523445714527
430, 196.6855157671248
431, 182.23107093525186
432, 162.58429561361163
433, 132.65953214700994
434, 102.42708493516784
435, 85.1376328769552
436, 74.49796253135719
437, 55.409137482991355
438, 30.402954689428952
439, 15.926445695664825
440, 10.980373506496562
441, 6.5184973963855555
442, 0.5888327372517779
443, -0.07806489935410355
444, 7.249142524507533
445, 18.048275183375154
446, 28.023505511336225
447, 38.61450505763787
448, 51.6168446319748
449, 64.4427434250556
450, 71.42765129211875
451, 71.64786929327238
452, 62.37666455092858
453, 45.256611033375975
454, 33.318788411722835
455, 28.793578780425378
456, 28.25219021119119
457, 30.46763619890453
458, 30.769466257235763
459, 26.537003483623266
460, 19.32956305261996
461, 10.681538510350947
462, 3.6061087188245438
463, 3.6645241826959136
464, 7.964493871917057
465, 7.506856205792246
466, 2.6655167116518896
467, -1.7794528131757943
468, -5.415508876571494
469, -6.329762645289065
470, -4.277584592811763
471, -3.528620433760352
472, -5.7816709362959955
473, -8.988888054248946
474, -11.96599871382432
475, -12.482722372808894
476, -7.684858469344363
477, 2.807906522325993
478, 19.8382380463122
479, 38.60014714424187
480, 45.00855750055098
481, 39.52603363078924
482, 29.787528459923124
483, 18.044428222031
484, 15.154058063651973
485, 23.126306915210534
486, 28.51014866315836
487, 26.069289538243538
488, 23.969037885855414
489, 27.40069079029854
490, 30.135999155666468
491, 25.574676832909518
492, 18.25156273657967
493, 16.037954076432015
494, 14.670977278276041
495, 2.0875896593061043
496, -16.223925086581858
497, -16.1154556785732
498, 2.747461855467918
499, 22.501989313143895
500, 38.68076293502327
501, 48.153990425408665
502, 49.870088240644236
503, 42.03107741592112
504, 23.794414870773835
505, 7.969208991436972
506, 5.318541145909876
507, 12.176826196947786
508, 24.936374066073768
509, 42.06618524269288
510, 55.5836896441665
511, 66.86373328521177
512, 80.47154393728579
513, 96.4211912029732
514, 113.34959755405634
515, 130.25622221165986
516, 140.89141883701905
517, 144.40943760047867
518, 146.84026747527105
519, 150.10207521407256
520, 154.4065412502705
521, 159.87133079403657
522, 169.06343640548585
523, 183.82624995293872
524, 191.28854135403708
525, 177.01015027599578
526, 153.1047185076236
527, 140.26891427520832
528, 134.1354971426863
529, 122.80527746267626
530, 108.45555882122926
531, 101.35707051027885
532, 101.55726998710134
533, 103.84312270609735
534, 107.10636943022882
535, 108.70389237082463
536, 107.66506285424111
537, 98.4868242426628
538, 79.44213058566129
539, 58.12801081029329
540, 38.451876970197645
541, 34.14482794995092
542, 52.077765041623024
543, 71.91229381074481
544, 74.89488086210986
545, 69.5978224309406
546, 69.97407865707146
547, 73.79478164396505
548, 75.43982734900646
549, 76.7035359239494
550, 84.23454652856253
551, 93.92188410917333
552, 83.89138990684341
553, 54.907272184833346
554, 32.01387452120616
555, 19.343574049976723
556, 9.095895486716472
557, 0.34751880679277747
558, -1.389835435209534
559, 5.950209827894469
560, 12.745252788839025
561, 12.858964632755033
562, 12.10171022229133
563, 14.843554739945375
564, 17.38290955415914
565, 15.727821852584839
566, 11.304633217154787
567, 6.2826519292584635
568, 0.5977303274662518
569, -5.871228804107886
570, -11.60753100502643
571, -11.033303487090961
572, -5.601565596902674
573, -2.0504640584526896
574, -0.4610640932660317
575, 0.8537118654285223
576, 2.30236851488462
577, 4.1899922425554905
578, 6.446192593591604
579, 7.339875743414723
580, 6.248456765640185
581, 0.6856929024852434
582, -9.8703539174644
583, -13.83348184161332
584, -5.346512953335605
585, 8.074616026387957
586, 21.378891639229096
587, 29.079311870492347
588, 26.251595857212124
589, 17.77636873026313
590, 9.617072348456077
591, 4.548790065304729
592, 7.5012878087386525
593, 17.38150961565907
594, 32.71116243605002
595, 46.73589638951853
596, 41.11098868439922
597, 21.19200526873101
598, 9.629100361030396
599, 6.267143843366284
600, 1.2397675781562612
601, -4.133464497604564
602, 4.370502971951737
603, 26.555471556996963
604, 36.85342689068693
605, 30.851618998859067
606, 23.053985044562523
607, 17.40023339186746
608, 10.608336085678275
609, 1.8073483502116687
610, -0.06467126747202201
611, 8.524672918944816
612, 13.817099048271757
613, 8.027231597097398
614, -0.2849820584497138
615, -5.011099687135811
616, -7.573226138856626
617, -9.092215800024405
618, -5.989406192770275
619, 6.391403348354743
620, 22.11133033831311
621, 31.61997707770297
622, 36.4048705267046
623, 39.29366255108698
624, 39.01835320247619
625, 32.65443242053607
626, 21.511060180442655
627, 9.387866500888776
628, -1.7241607147957438
629, -6.183442328250294
630, -3.1370080835727094
631, 11.113648130252841
632, 34.83952557817929
633, 56.443273164995844
634, 73.09902006304037
635, 77.12597586055563
636, 68.33174369507469
637, 54.65415766064916
638, 38.32946758633807
639, 25.215609811461945
640, 17.120051422187316
641, 20.269306695355226
642, 33.07429760078139
643, 36.95067011740639
644, 26.61210281710055
645, 25.52800866345524
646, 42.31879310327486
647, 50.83738885204093
648, 39.23330033084767
649, 30.901464620727438
650, 38.47580624752209
651, 41.51686621295312
652, 27.018194878284703
653, 12.94326914500607
654, 12.686426887069047
655, 14.002369341692884
656, 6.228171098120583
657, -2.5961752226689896
658, -5.79885392707547
659, -3.000001394641913
660, 6.917073816649008
661, 17.474950904092566
662, 19.433691921641184
663, 17.376114370691994
664, 18.504347959261395
665, 19.618836710470077
666, 14.947853806434523
667, 8.462347429779129
668, 8.23042145755835
669, 10.707558306236479
670, 7.564265581330346
671, 1.9257467204015484
672, 2.4398360306240647
673, 8.249702872673879
674, 15.551226305903583
675, 21.612539694109273
676, 18.77441511819916
677, 9.314644863123249
678, 2.594150840221573
679, -0.6985681130609009
680, -0.8668531223279388
681, 1.3169153717808513
682, 3.1142959426588277
683, 3.825775874068313
684, 2.320541343093737
685, -0.6867248073449446
686, -1.183728775389227
687, 0.46859811695321696
688, -0.0002714114898481057
689, -2.801469685090524
690, -5.502763798825072
691, -6.721253604532649
692, 0.9814599055939652
693, 17.70278713501284
694, 30.21087287279579
695, 36.9559424721524
696, 44.183799262227694
697, 52.45538099576834
698, 56.59869882501016
699, 56.00658146306887
700, 54.62934317683403
701, 52.311600197360804
702, 39.95390093670039
703, 17.331917458316184
704, 2.2882045541155094
705, -0.8225617343141494
706, 5.168659502673108
707, 18.84214293931109
708, 25.319176261536086
709, 21.426701577885524
710, 14.259433345663638
711, 6.588428664603725
712, 8.45042968645339
713, 21.855517188717386
714, 36.064808886368155
715, 47.60453439822368
716, 49.105773074980334
717, 39.49526284756075
718, 32.785110326215545
719, 33.14561740150566
720, 39.855389769018984
721, 51.989654830827476
722, 60.37074468479386
723, 62.05662061915609
724, 55.548370088434694
725, 41.023939630988934
726, 26.91500929269614
727, 15.633932671175899
728, 4.583887583493379
729, -5.620648168147454
730, -3.6831133435280208
731, 12.91890487740011
732, 26.195825434483595
733, 30.857730131443077
734, 30.221261334197607
735, 25.09405387154584
736, 13.3099623339981
737, -4.242642025221812
738, -10.404218092506198
739, -2.250124226022308
740, 4.7857946089111465
741, 6.501263182778985
742, 3.749843555483494
743, -2.412963438360748
744, -3.922266656065858
745, 1.1982526774595499
746, 13.261583371882352
747, 30.353127237004628
748, 36.854266725646994
749, 30.63294940458991
750, 24.902121202926537
751, 21.853936023764618
752, 15.301356066162953
753, 5.018149316749259
754, -0.9896816195828251
755, -1.8737944649933524
756, -2.2112670537439953
757, -1.4716700264871179
758, 9.290521336907204
759, 28.834546523119116
760, 40.04318674616934
761, 40.62454835969902
762, 33.130732200204875
763, 20.17160033113396
764, 12.756539805449847
765, 10.776986759714418
766, 7.003030694935205
767, 4.694717508020858
768, 17.878399405421987
769, 41.948598557868536
770, 55.38438648947658
771, 60.371458035780506
772, 71.58877550806346
773, 83.34754547624198
774, 73.99487981511038
775, 49.08282145254316
776, 28.759905284959586
777, 13.69895019487285
778, 2.490149252169431
779, -1.382675932867187
780, 9.280842928147194
781, 29.34798287381045
782, 44.506500066797344
783, 55.45191112030807
784, 64.19921759241015
785, 69.30175255526046
786, 68.3373235668414
787, 62.49913941197292
788, 53.543408162935975
789, 42.64694532847625
790, 31.26387760664784
791, 25.596577182178407
792, 32.33933433391803
793, 35.439961746152676
794, 20.09545985807472
795, 3.507831915805582
796, -0.3627627147163821
797, 3.1935282937668035
798, 11.22896082858938
799, 25.63103333085155
800, 47.00983725292053
801, 50.256615162163826
802, 24.234613599538534
803, 6.567422337319385
804, 12.750336175409302
805, 16.770792584117316
806, 10.576657111873601
807, 11.734052741146343
808, 23.306679978036982
809, 19.885931860602568
810, -1.283613303117363
811, -7.7505227622400525
812, 2.7223581823404857
813, 2.745761168187528
814, -7.9944876033823675
815, -4.48667878788865
816, 13.885834202003252
817, 31.78677895932219
818, 46.928244021577484
819, 57.742054845875145
820, 61.50850783777241
821, 50.55347796295359
822, 30.146772989015062
823, 14.47128139469919
824, 4.859253523947245
825, 3.172643787275092
826, 7.162898371457004
827, 13.742470327843648
828, 18.362609238236473
829, 16.00546374174337
830, 12.39393009761966
831, 13.569728520222725
832, 16.054409677716194
833, 17.03696414289584
834, 22.369937568999376
835, 35.62551631592487
836, 46.05703849381803
837, 48.11334135981747
838, 43.42635016808458
839, 32.890248079527964
840, 19.642778903010594
841, 5.224321148128183
842, -4.753896007479398
843, -9.44689660906829
844, -5.50932255735529
845, 6.074854073312508
846, 14.405937947360599
847, 18.129905829655854
848, 22.017446888699624
849, 27.00392858201053
850, 34.39086781559445
851, 42.5643424950822
852, 47.136293823486994
853, 46.3315786886219
854, 37.067302792868986
855, 21.474324403405262
856, 2.9203385341938883
857, -7.2200391592493816
858, 2.65063002290276
859, 17.838906911212234
860, 24.905757465396164
861, 30.50654225815606
862, 38.717986168975585
863, 45.42316855708145
864, 48.52968692849004
865, 45.909016546994735
866, 36.57785027205932
867, 18.24673441402433
868, -5.7765140508684
869, -7.444965880047903
870, 15.225022158066622
871, 44.53411198248796
872, 73.76266639623213
873, 87.51143354947294
874, 83.03429822793692
875, 56.80234481539469
876, 21.34959584919602
877, 2.8552144571604003
878, -1.5770551612376948
879, 1.6373411410515928
880, 10.71817397753398
881, 23.260256512385467
882, 29.775823407347843
883, 23.331929798860074
884, 13.936326398784331
885, 7.320158498554065
886, 10.388930612477907
887, 24.02548832179332
888, 38.969187667578126
889, 51.6474351131144
890, 55.15629343981891
891, 49.76355671540432
892, 43.53907718566393
893, 37.97537028963529
894, 34.47339410477298
895, 32.88816203841748
896, 32.57985336525326
897, 28.990286753679356
898, 14.307491831424386
899, -0.37415368247434344
900, -1.722674272026552
901, -1.0600096543748805
902, -6.981706489827275
903, -5.107172725600776
904, 12.157932753792466
905, 28.79979297285672
906, 39.02213637752584
907, 48.66242606223909
908, 56.95704868355574
909, 49.03341986477358
910, 27.006230604045868
911, 11.014929561209101
912, 3.5122774573087554
913, 5.412382182007832
914, 14.984196974558245
915, 27.839030276287758
916, 41.818672185072955
917, 54.19008356071072
918, 56.98729967527106
919, 43.69241919612432
920, 29.194438948049765
921, 21.504133207877885
922, 12.768028850179462
923, 1.3199184975046592
924, 0.2831724846294037
925, 9.648965347819512
926, 10.63692856897137
927, 5.586980434694851
928, 15.282525843110534
929, 32.651922289364165
930, 36.77116544765431
931, 30.050547689849736
932, 18.028804234771314
933, 6.1585207377688675
934, 0.6919820589364463
935, 5.698349654111553
936, 24.11345047777627
937, 41.55513252912624
938, 51.37367324783804
939, 44.950046413430755
940, 24.618688262870137
941, 19.516189866458717
942, 29.854442178192812
943, 37.32289440266777
944, 39.37950250963104
945, 34.19026123014396
946, 22.970326219686967
947, 7.746930581195329
948, -3.1489857967965236
949, -2.25471141778894
950, 2.8614120432996515
951, 8.402258122728654
952, 17.18957209242967
953, 28.59784943244631
954, 27.245873058406005
955, 13.242085238650589
956, 4.65211827905614
957, 2.041144344203758
958, -0.059522417381003834
959, -0.5346482478139478
960, 3.796761185970354
961, 5.754100407125634
962, -2.885498521254931
963, -8.510943215031148
964, -2.9155687409106577
965, 2.0949136181152426
966, 2.746379283115857
967, 6.960920421198807
968, 16.093984767266875
969, 28.355819730986923
970, 40.27811496740196
971, 41.91116437571736
972, 33.713379719659315
973, 17.880963100212966
974, 4.636995470721331
975, 5.580387126851747
976, 10.559219512902928
977, 12.726893818955432
978, 16.004431405294326
979, 21.219328016568625
980, 22.88533663121666
981, 22.576566281266196
982, 32.911749168749566
983, 47.28546444049721
984, 44.25621770811358
985, 33.52420623961325
986, 31.901814515249953
987, 25.62244906232877
988, 3.3863447182336586
989, -7.33284505500751
990, 3.298399370130028
991, 6.422782921224098
992, -1.0695023251794282
993, 14.671833277998985
994, 47.28133883174405
995, 58.37628164954799
996, 54.380653333587134
997, 52.66063428179041
998, 44.93713700932062
999, 22.668789309147087
1000, 7.296305430689927
1001, 10.678234648343505
1002, 17.967339179280543
1003, 24.638524711365335
1004, 30.919180561306803
1005, 34.5378143344376
1006, 27.555674813459063
1007, 14.729696016979688
1008, 6.5659174277679995
1009, 6.544790704978823
1010, 16.373139400552645
1011, 19.073126827573105
1012, 6.331179480782339
1013, -5.188688345603396
1014, -10.497709279334458
1015, -8.463170321476355
1016, 1.86433904495334
1017, 23.000203313130214
1018, 38.90846850718367
1019, 21.545662730967706
1020, 2.70455743535922
1021, 11.407847283396222
1022, 16.840005770928656
1023, 6.639118536287469
1024, 7.2728551439274725
1025, 19.95620477958164
1026, 16.429639363493834
1027, 3.8518917411615803
1028, 10.797468923341512
1029, 21.254643248486445
1030, 11.827418453822474
1031, 4.954482243313805
1032, 15.661975650405111
1033, 22.54558849543787
1034, 20.117328633040415
1035, 24.022902708872152
1036, 31.567762442067988
1037, 23.051535389461378
1038, 8.617781997500288
1039, 9.849207371583589
1040, 16.53426214419119
1041, 19.106921353443795
1042, 23.313397208002698
1043, 29.919414625570653
1044, 21.281728360347188
1045, -1.0226805678580604
1046, -12.290179799276075
1047, -11.588834956470691
1048, -0.4065718260662834
1049, 13.08099804036874
1050, 18.804727426593217
1051, 18.52583446657036
1052, 13.266221379341232
1053, 3.8412082791476223
1054, -5.868340509985728
1055, 0.8263967498542115
1056, 17.74336018408235
1057, 23.301414661307035
1058, 19.561078694730213
1059, 10.071780745993692
1060, -2.735091460154081
1061, -16.381048378583728
1062, -16.401979553361798
1063, -2.127297946282397
1064, 9.791889993087352
1065, 18.668057384849135
1066, 26.47430750887156
1067, 37.48017437679346
1068, 52.815126213971325
1069, 66.16503748862351
1070, 74.78754608671034
1071, 85.1863227377653
1072, 99.84224901372431
1073, 122.09120860138728
1074, 149.07280273916012
1075, 173.94242022291974
1076, 195.10786892738315
1077, 211.0081854946052
1078, 215.64021681805684
1079, 208.35533421899936
1080, 206.68810100926248
1081, 209.636854608769
1082, 199.63569833871952
1083, 183.80523861840857
1084, 177.08741424339541
1085, 164.2525048724433
1086, 134.44922029063468
1087, 107.73616844719845
1088, 90.45189867778981
1089, 76.60569294666857
1090, 62.692287373957925
1091, 41.88635315466195
1092, 18.910859797777448
1093, 2.2677236772954075
1094, -4.373419189697188
1095, 0.2081235709649718
1096, 5.409671588946821
1097, 8.120815255607567
1098, 4.796228192013132
1099, -1.9236014873329168
1100, -8.013093941242914
1101, -7.094570855178972
1102, 5.84951238488793
1103, 18.113596127862593
1104, 24.279054139542495
1105, 21.962520183943298
1106, 14.139959876577677
1107, 9.569674382649055
1108, 9.570020475684487
1109, 15.067649981440582
1110, 23.14827165595193
1111, 31.064865463621345
1112, 28.065070072403387
1113, 14.871604000408297
1114, 2.0855581863397674
1115, -7.186542464750346
1116, -10.824333444416425
1117, -11.134706631229164
1118, -8.905936022287051
1119, 1.6246748557834962
1120, 19.081899254467316
1121, 26.618326740457178
1122, 25.73199532972103
1123, 22.56695589858532
1124, 18.607756320914632
1125, 15.205064784033993
1126, 17.129496266516526
1127, 24.51488270749587
1128, 30.333993771853557
1129, 30.11826941948152
1130, 16.50392618380738
1131, 2.9490597481662917
1132, 1.3936953364770943
1133, 9.95137350149298
1134, 25.70543307953335
1135, 37.18374461244957
1136, 38.36896510679844
1137, 19.602041352997958
1138, 5.757032921282189
1139, 19.330034393623237
1140, 39.48464082922965
1141, 55.82215045784665
1142, 53.40288361030571
1143, 35.286622166050165
1144, 13.533419901991238
1145, 0.7081941700703283
1146, 7.142186683272939
1147, 20.739360428857708
1148, 33.028013277671334
1149, 28.0472059372928
1150, 16.3302743585009
1151, 25.48729814382932
1152, 32.075181287732676
1153, 17.691898533529866
1154, 15.714522036981634
1155, 30.14949127463501
1156, 25.555223808174105
1157, 15.468884514196816
1158, 34.66403187836818
1159, 51.09083463777915
1160, 42.72189168458681
1161, 37.18173131639537
1162, 39.62092714748883
1163, 37.552562320253855
1164, 33.294961924836116
1165, 32.624619604323016
1166, 26.26006564818431
1167, 10.000091628957307
1168, -2.2880166997606466
1169, -7.217061358965566
1170, -4.491241151397389
1171, 6.519849908234164
1172, 26.060418529523076
1173, 35.6786222787598
1174, 29.282150245436924
1175, 24.857480292738728
1176, 21.758520310104586
1177, 10.2220746992366
1178, 4.609577047946686
1179, 18.27018065915354
1180, 36.789054323039636
1181, 51.45431156273048
1182, 44.779990612785696
1183, 24.525042122226523
1184, 8.41787646619423
1185, 0.2349829257248075
1186, 2.1258507068273502
1187, 13.652266037899608
1188, 25.98613062289496
1189, 12.613541860179112
1190, -5.835373410888678
1191, -3.7613278909616383
1192, 8.795445638152614
1193, 27.306274238036167
1194, 43.08992487275418
1195, 52.15196955211559
1196, 48.867868089703734
1197, 43.4442674531424
1198, 43.27380812311344
1199, 48.044217786502486
1200, 55.53919281454955
1201, 58.67580059456668
1202, 56.169549741902074
1203, 47.45783011100775
1204, 40.267113936620035
1205, 37.86767787251779
1206, 40.06058081402125
1207, 45.62119336996193
1208, 52.21927576601115
1209, 59.03341289028822
1210, 65.20390806743717
1211, 67.49254782497928
1212, 64.24210471453603
1213, 52.88179217161223
1214, 40.44408585411247
1215, 34.261405396952114
1216, 32.32982345950836
1217, 32.47190279195752
1218, 28.364354379043107
1219, 19.297048864953013
1220, 5.762038469145864
1221, 6.093657752668378
1222, 24.494413982979495
1223, 28.431298111666138
1224, 20.084082190201798
1225, 16.46780994235496
1226, 3.8625681230992086
1227, -23.120817175484262
1228, -23.60147243686947
1229, -1.455434286469199
1230, 2.0501048417256698
1231, 4.6858203113665695
1232, 24.708127277054018
1233, 29.333472493966156
1234, 16.746128580062077
1235, 21.964396233757498
1236, 32.13809295960937
1237, 26.244033411388955
1238, 22.066768377394283
1239, 23.40118995304033
1240, 10.703151412692932
1241, 0.6099438414246379
1242, 22.249972678698896
1243, 51.12076349044355
1244, 71.26284087736758
1245, 87.60887898670262
1246, 94.70618220694041
1247, 79.98535509191584
1248, 77.69586065733392
1249, 105.0371733274144
1250, 121.88437517520288
1251, 124.08617929222328
1252, 122.29938641916647
1253, 117.7377686662935
1254, 112.1084496072981
1255, 116.29077129633242
1256, 128.9920369793458
1257, 139.26621688264845
1258, 145.78075769528732
1259, 147.75210033543044
1260, 143.21309931536803
1261, 133.22079709247487
1262, 122.61623216612224
1263, 110.79337294550896
1264, 97.8480006458376
1265, 96.01091335450178
1266, 103.17465306995086
1267, 100.7428212813611
1268, 96.27760402507852
1269, 98.38017104489518
1270, 101.30503216421425
1271, 102.34200789369083
1272, 98.45283964131977
1273, 87.09973680990674
1274, 67.03594847420118
1275, 53.448501252522874
1276, 51.95944114239205
1277, 65.31059233909309
1278, 71.96259591191415
1279, 51.84738811028501
1280, 31.84528336259109
1281, 19.132083427167117
1282, 12.019541797416878
1283, 10.159176944264118
1284, 13.401084081410772
1285, 13.868213040920864
1286, 11.006971926295591
1287, 9.166896281248682
1288, 7.3614323320152835
1289, 4.545755284209918
1290, 2.0963373169524857
1291, 0.45694103434357203
1292, 0.6618434899305612
1293, 0.8251140442816904
1294, -0.818620110064785
1295, -6.4961011657158
1296, -11.250611476096992
1297, -1.3048177576599755
1298, 12.733306227028606
1299, 23.293584136851223
1300, 34.403842128840324
1301, 38.724863752798
1302, 20.272244206902997
1303, 7.487603423039445
1304, 12.301557639015073
1305, 9.23465131550688
1306, 2.2366256686473207
1307, 4.626510823675062
1308, 7.068903720015669
1309, 6.574676978375692
1310, 12.073888488202329
1311, 18.529128686527656
1312, 18.18447260819198
1313, 16.27353576842279
1314, 14.99143341688
1315, 15.350662286962233
1316, 13.539346288283241
1317, 6.216594567980792
1318, -1.30051831433002
1319, -7.817889677205585
1320, -14.25705915314893
1321, -7.123088971710558
1322, 20.340055490260283
1323, 39.57305649374712
1324, 44.83371089252
1325, 36.778048696924316
1326, 34.08762335648203
1327, 42.90010607160025
1328, 46.70107849832243
1329, 41.46594862319694
1330, 25.759459234233873
1331, 16.59334441456417
1332, 18.756304772156454
1333, 27.961955078405254
1334, 33.61057340712682
1335, 27.563623362590874
1336, 18.192686903883782
1337, 12.266823135175628
1338, 19.98611307356191
1339, 19.796310594830857
1340, 4.072629537556054
1341, -0.2813592063222359
1342, 3.3641139751233595
1343, 5.304693039717677
1344, 1.7548484559949884
1345, -5.5760411821966045
1346, -8.20686132141509
1347, 1.141286180466409
1348, 26.726197277529536
1349, 47.29779342059339
1350, 52.46367974700706
1351, 31.53489057734646
1352, 14.9376791896633
1353, 15.687173811368439
1354, 21.525334747506463
1355, 24.916487633298175
1356, 19.387235435705406
1357, 13.749822096564117
1358, 12.891236071955518
1359, 22.62911342093605
1360, 35.49521926802288
1361, 43.63071894451787
1362, 30.53571299783607
1363, 11.051390106982922
1364, 9.98794800327721
1365, 5.695090346336542
1366, -1.9684047676395267
1367, 8.710076536612632
1368, 12.041602963682976
1369, -5.063472685908891
1370, 11.504070416528748
1371, 45.750942440377
1372, 53.642126339154856
1373, 56.63780812766743
1374, 59.03107586940587
1375, 45.391209304142194
1376, 33.46994392854799
1377, 36.065378015738474
1378, 33.3024723976456
1379, 27.273656855476133
1380, 28.324173083523192
1381, 34.23296516825155
1382, 38.453400194964956
1383, 22.2953706435635
1384, 2.693125653103152
1385, -5.677149723159232
1386, -5.15463848096681
1387, 0.797885405068314
1388, 7.450146844521896
1389, 12.571700345534282
1390, 15.068508710089986
1391, 13.956246112257531
1392, 7.798240162038724
1393, -1.5626757041276278
1394, 2.254102347624894
1395, 16.149536259190313
1396, 30.889128965287796
1397, 40.20303536322274
1398, 37.930423685922506
1399, 14.007011406966399
1400, -1.5323439977350972
1401, 4.506409898132347
1402, 14.27951397961533
1403, 27.97037526035956
1404, 46.326492086286976
1405, 47.66027256079667
1406, 37.421532880583754
1407, 35.68823666232436
1408, 31.213803014086807
1409, 19.978399167126895
1410, 5.279116096689108
1411, 0.3100056754728939
1412, 10.678580464571496
1413, 18.42265513152097
1414, 19.824127629814257
1415, 13.999608017040941
1416, 2.4869668465520363
1417, -2.2254701882071686
1418, 24.408254434868127
1419, 39.10497431080785
1420, 27.00685246845387
1421, 12.327323096108444
1422, 1.644178555450594
1423, -0.6373134877333086
1424, 10.238843878693615
1425, 25.719571291195393
1426, 33.53020826929742
1427, 41.64811645270697
1428, 45.8732550001813
1429, 32.576251519640095
1430, 21.54080096298037
1431, 18.51535763970537
1432, 11.297833751336611
1433, 14.926554351854861
1434, 33.22673885527786
1435, 34.20848114324963
1436, 30.359513995011525
1437, 39.64544316987599
1438, 40.93050679757209
1439, 32.72126424113162
1440, 21.947706921212898
1441, 14.137878888250384
1442, 15.232122346638903
1443, 35.53391007817402
1444, 60.26183614999593
1445, 74.02182060497785
1446, 49.053782388522336
1447, 12.462368649070754
1448, -8.789452087721997
1449, -0.47794118682884346
1450, 17.06845081130848
1451, 16.316023388425833
1452, 12.78761128494989
1453, 12.254510822165571
1454, 17.891136285742846
1455, 26.5873846116192
1456, 34.73023200176908
1457, 36.445392458769334
1458, 43.18214489736624
1459, 55.215147657989064
1460, 53.509057461355155
1461, 35.89497752779937
1462, 7.683005370174783
1463, -3.848681940489314
1464, -1.4224621616624518
1465, 7.670211358481765
1466, 10.385795962361954
1467, 8.796202021441218
1468, 9.157620693028775
1469, 14.644658233164591
1470, 20.125508640824705
1471, 15.99337359568301
1472, 12.942628915386877
1473, 15.057849590682395
1474, 22.966194027335177
1475, 26.689556546115796
1476, 21.900029389624706
1477, 8.807249683125292
1478, 0.6098707966189068
1479, 1.7067765860003874
1480, 1.686947750364311
1481, 3.4371323544911547
1482, 9.207576870723528
1483, 15.930002829036653
1484, 24.317536338805326
1485, 31.48259770338359
1486, 15.24940866879399
1487, -2.5253542282401895
1488, 1.7108421327906171
1489, -0.17356925793797018
1490, 7.821789332047274
1491, 47.99597674566189
1492, 55.52261553496305
1493, 37.31089768157267
1494, 28.487595657257316
1495, 15.320617867083115
1496, 3.2968938534777408
1497, 9.385788776406343
1498, 13.69658995449663
1499, 16.691533862016854
1500, 33.13636137586832
1501, 48.73005750490279
1502, 48.60366286251917
1503, 12.256745081653207
1504, -11.892218891036123
1505, -7.80027411506228
1506, 12.770668052962378
1507, 39.06052506868059
1508, 57.54345406757159
1509, 43.73553468486739
1510, 25.000251679245252
1511, 13.99013347252037
1512, 1.2768749323508928
1513, -2.963362732954124
1514, 4.633204906027686
1515, 15.7784472639878
1516, 18.01480340575631
1517, 11.271426819306498
1518, 21.600033864710326
1519, 29.818444901051862
1520, 27.562744114948373
1521, 38.23565023309345
1522, 35.43336064490063
1523, 11.829756141574308
1524, 18.610709355624977
1525, 26.59630137389513
1526, 18.817922853260256
1527, 26.646667960597597
1528, 31.129160125964972
1529, 20.929707210559855
1530, 15.722004991987433
1531, 9.672860608894553
1532, 0.5207467148929936
1533, 2.7846802687499803
1534, 7.522580759624702
1535, 8.32912163875676
1536, 10.900163813207655
1537, 11.120576690922917
1538, 9.492718461697336
1539, 20.403760220782146
1540, 21.43694675615177
1541, 3.2137474514545374
1542, -10.990122340770995
1543, -10.156431747352144
1544, 10.290071240813518
1545, 44.686557245683844
1546, 66.60126431043057
1547, 63.42334152417072
1548, 42.26945493329595
1549, 21.621792130003314
1550, 13.255189301554992
1551, 23.383043682172115
1552, 22.054158509087642
1553, 4.489805182997543
1554, -3.3494061772214536
1555, -0.6447797770117631
1556, 12.475640328044165
1557, 33.95980950651585
1558, 46.579870066762055
1559, 45.66513568415189
1560, 35.30635500581582
1561, 22.984911160497404
1562, 9.269098265490243
1563, -7.147874375718061
1564, -5.5161262609111645
1565, 5.185894635043724
1566, 3.8806252910405874
1567, -2.5541050874569464
1568, -5.67311172628672
1569, 2.3905748551909483
1570, 14.247915812172891
1571, 31.379346338073105
1572, 55.83385656169958
1573, 96.17295673718252
1574, 121.06015129503089
1575, 109.57338375680342
1576, 87.01729846846331
1577, 76.71307704596552
1578, 94.40044885684824
1579, 147.11236254933442
1580, 173.88693904553895
1581, 163.20039882941285
1582, 169.7431241975769
1583, 182.55256637953119
1584, 190.11617946968488
1585, 180.78794363673967
1586, 163.91832803479815
1587, 146.3253016075986
1588, 133.96878624108626
1589, 125.19377084385064
1590, 106.53919359721795
1591, 68.93138820273089
1592, 55.2858390973106
1593, 46.44052747274384
1594, 24.79817913279669
1595, 18.74698552134805
1596, 22.93388071295567
1597, 24.82615215134308
1598, 6.882489012288033
1599, -9.77088572383309
1600, -15.767146848625998
1601, -9.150633089219127
1602, 15.003146117455913
1603, 35.2976643315601
1604, 16.93977663713008
1605, 1.0291437488758675
1606, -5.218401746724112
1607, -3.3593816768412808
1608, 18.197544864536667
1609, 37.41230265599938
1610, 41.01758446069971
1611, 48.027852108953425
1612, 47.80019733627978
1613, 39.699334653703886
1614, 38.11283088076277
1615, 37.97412587566998
1616, 39.847038402682415
1617, 46.644210665042124
1618, 45.5605726840306
1619, 35.360048589022085
1620, 20.980509781935098
1621, 18.117049766113723
1622, 25.18682455424846
1623, 36.726337126442786
1624, 43.33118249006509
1625, 41.935094253396414
1626, 38.21032976947379
1627, 43.240322250419695
1628, 24.542973773550898
1629, -3.268997011179863
1630, -10.04810362630576
1631, 0.08051287865805534
1632, 28.181414207662783
1633, 59.5884860660276
1634, 42.39190061564591
1635, 38.417209055192984
1636, 58.21585525006162
1637, 59.10559590556363
1638, 63.86979618307657
1639, 57.24536521415223
1640, 19.976289092335264
1641, 6.671207719282506
1642, 3.23061199941003
1643, -2.230466444266085
1644, 7.119887595289242
1645, 8.10097413294693
1646, -1.8576422958097965
1647, -7.0587492059700025
1648, -1.323456952206584
1649, 9.715129512223598
1650, 13.670467759158328
##END=



