##NAMES=
##LOCALITY=
##RRUFFID=
##CHEMISTRY=
320, 24.79355207186245
321, 9.836824408677785
322, -5.213078376867088
323, -17.16163451391276
324, -23.770711310971365
325, -19.67078196156399
326, -5.7144789215326455
327, 14.191960344773179
328, 40.07159687871308
329, 56.51583521919201
330, 60.113914661152194
331, 56.18985539843834
332, 47.66509133439831
333, 33.641007862318475
334, 12.980382701458893
335, -6.849988163213766
336, -10.830358564460312
337, -0.969877040902702
338, 7.662168002157159
339, 13.406029560179832
340, 21.380159654554518
341, 31.959425303855824
342, 37.54076924643141
343, 31.868234972103892
344, 21.52131739303786
345, 18.682426074840805
346, 20.6188290549635
347, 15.582386936723196
348, 3.9603672727175763
349, 0.9070995096271872
350, 9.432096441431895
351, 18.32929344479635
352, 20.441595202341432
353, 20.896017087985456
354, 25.497380616714963
355, 29.801120654740316
356, 23.13278881628503
357, 9.52511145163544
358, 12.663975146817847
359, 34.034046459745696
360, 46.62080571016713
361, 42.61402725779044
362, 29.501591266748164
363, 11.988051073351471
364, -3.3870496787394586
365, -10.85119613247025
366, -11.393567270528365
367, -5.8611982731499666
368, 4.871458100712516
369, 13.76458563065853
370, 18.760280959631928
371, 15.982166819714166
372, 4.213340642687854
373, -2.448347329045646
374, 4.7567533297169575
375, 15.929848141369348
376, 14.978203892215788
377, 7.20375462233369
378, 9.250160127328854
379, 18.339554150804815
380, 15.825626136438586
381, -0.16832269792985244
382, -9.910065995540208
383, -7.657253731048968
384, -2.8349772051888067
385, -1.49465753681352
386, 1.4896229152154774
387, 13.468444511784128
388, 27.837018961586637
389, 26.65219627693523
390, 11.569526020407466
391, -2.5729313048718723
392, -13.351933874113456
393, -16.336315195480893
394, -10.24975795540604
395, -3.288410963489696
396, -0.00740325429751465
397, -1.2202312671897744
398, -8.429766256341736
399, -19.513051277442628
400, -28.91945020876392
401, -34.584892497216515
402, -24.81650812625503
403, 0.00866301929590918
404, 14.932297679197745
405, 13.518709014907927
406, 10.172687750922705
407, 12.735709880810191
408, 19.8225050211895
409, 30.647304706258183
410, 46.63064647886449
411, 65.31049421782427
412, 83.33849209079972
413, 89.60852605742775
414, 85.9220049149003
415, 89.52380824690954
416, 111.73870557874261
417, 132.7743743872502
418, 148.99127033141167
419, 163.5029367164998
420, 178.2452352198402
421, 191.14873705556056
422, 199.72557656276467
423, 205.92408060215803
424, 214.08366128650505
425, 221.4204132227137
426, 216.05966236298582
427, 198.57705388435215
428, 183.48761840839734
429, 173.53210941634234
430, 160.98523006201412
431, 142.84313191758156
432, 122.0431908942769
433, 100.64941706656555
434, 75.84613635970663
435, 43.89127716259509
436, 15.079963695454353
437, 0.584555120351979
438, -2.8267797806192902
439, -5.522853375499835
440, -8.103823665940126
441, -4.409176349112386
442, 6.826271164390619
443, 16.58941002245865
444, 20.30465671713091
445, 23.031766954376963
446, 28.202747499973157
447, 30.978135665726313
448, 25.322111724509796
449, 17.020445987076528
450, 20.453539158809235
451, 30.44280349794053
452, 32.236663445334216
453, 25.534708527724433
454, 17.955105423007808
455, 10.982351302647658
456, 6.361798671811357
457, 3.892918415924669
458, 5.729655881148119
459, 13.402689213206031
460, 18.574521164532598
461, 13.604917214535817
462, 3.996830690594834
463, -0.35395928471143634
464, 0.17657616800124742
465, 5.332481013809684
466, 14.134511226831364
467, 18.792874445885445
468, 18.015713318540293
469, 8.933028055183513
470, -8.432485574642214
471, -19.841700934857727
472, -20.443903708098333
473, -16.08553131141116
474, -10.166818239777513
475, -4.933587007814367
476, -3.1202140188038356
477, -3.9631862184469355
478, -6.423260036357533
479, -9.315237464475103
480, -8.554014340550566
481, -4.659523673578406
482, -1.9563848390985186
483, -0.526670611661757
484, 2.767284102220401
485, 9.0381486017518
486, 19.916001080345268
487, 34.81176676678615
488, 46.971224932235145
489, 52.10021240572951
490, 50.60071673215407
491, 42.89873770434406
492, 33.19754419095898
493, 28.790542527970047
494, 25.201170161765276
495, 9.809274655769968
496, -12.390978093718331
497, -22.991005499424773
498, -21.4305848964068
499, -13.232044102024247
500, 0.6558062336121111
501, 12.838514872239557
502, 20.248695607234367
503, 16.11088739017987
504, -2.8577481824536335
505, -16.773739110470615
506, -11.349640906532386
507, 4.962397423159928
508, 22.429626585821552
509, 36.81123180805071
510, 40.81553485010818
511, 36.20867955656422
512, 28.874842812902443
513, 21.099448971317543
514, 23.75980532550193
515, 37.093867461967875
516, 53.902345285281626
517, 68.7946189589984
518, 82.82872591566547
519, 96.23281698495975
520, 105.63793178858168
521, 109.45944619680904
522, 110.51502486695517
523, 110.82807067039448
524, 107.47022406067845
525, 97.15617500199824
526, 81.92380626745307
527, 65.25611795361237
528, 48.30433279122599
529, 33.825323637719976
530, 25.186102245107122
531, 20.961150599295706
532, 20.711655947590316
533, 24.621275323428563
534, 30.149087124998005
535, 32.75726630607596
536, 31.49248312849477
537, 28.495913010558525
538, 24.488213267104584
539, 18.3317597462119
540, 11.331564423139753
541, 11.557327252899086
542, 25.50822282845911
543, 40.002386179190125
544, 41.71145840488725
545, 37.617538779538336
546, 39.083185934892754
547, 42.17693647515944
548, 37.41463080651101
549, 27.332526369443258
550, 21.533297747641882
551, 19.346890534930935
552, 14.054560767880048
553, 7.661108122771566
554, 9.77405830189764
555, 21.13226878255091
556, 24.697727355287043
557, 16.41713970772298
558, 4.026586727501126
559, -8.90202867587368
560, -15.997008089537758
561, -13.873244453997813
562, -7.273399893389978
563, 0.7374181752456934
564, 8.258018198242553
565, 12.298793093873428
566, 14.476183924435645
567, 17.247756401079187
568, 19.535561698450238
569, 19.03791780353322
570, 14.394724389891508
571, 1.954188696777237
572, -13.762863068831848
573, -16.765505674697124
574, -7.909054164861118
575, 1.4069183383840027
576, 9.855448373881245
577, 13.909732239545065
578, 12.738667195838843
579, 4.886915915104964
580, -8.762177329882434
581, -14.476989253839292
582, -7.388722255197081
583, 3.5668218776540925
584, 14.579137530917706
585, 18.22166077054726
586, 9.790731819581197
587, 1.2312110695438605
588, 3.3862199184800374
589, 12.327933010582
590, 23.88740325893059
591, 34.66301135493268
592, 41.159632809193226
593, 39.22982170252271
594, 20.208810884023933
595, -7.135098657687649
596, -18.76714692274618
597, -16.95985152157482
598, -10.427957995338602
599, -1.2845393126222007
600, 2.2202210349619236
601, 0.8440665526932207
602, 3.8855817223798113
603, 12.282093611028813
604, 17.731767259642766
605, 18.614790366815214
606, 16.48832030182257
607, 11.785534299488972
608, 4.328897018462158
609, -5.198546752400489
610, -8.98176926175256
611, -3.592060643288278
612, 2.2003473044105704
613, 3.685205751606645
614, 2.8552574113177798
615, 1.297530212093534
616, -0.043481863209763105
617, -0.5604365049662192
618, -0.8324194993124365
619, -1.4999603209735142
620, -0.9102528069897744
621, 3.5049025439107027
622, 11.02056262788983
623, 19.14461155550589
624, 26.436610137493517
625, 29.814457525837952
626, 29.06500937447936
627, 23.91356473809401
628, 15.167826565819269
629, 5.513360919392653
630, -2.5800007464649752
631, -3.136365290448339
632, 2.957327732820886
633, 8.898023026437386
634, 14.631628216573063
635, 21.246279772398793
636, 27.939855809346227
637, 26.386672891935632
638, 15.828680450130378
639, 4.847728591339546
640, -3.4711802288579747
641, -3.922292147487042
642, 4.852433567014941
643, 18.225550642048347
644, 33.34430507462366
645, 40.05182830192507
646, 34.400486855347026
647, 21.03495257336772
648, 2.4325111440275577
649, -7.495970062977449
650, -2.370780694249788
651, 5.880410454964476
652, 10.119514896188775
653, 11.658997796087988
654, 11.919496335396616
655, 12.463299473645293
656, 14.650812617693646
657, 15.917281920763344
658, 13.649446089904814
659, 8.006082951733333
660, -0.8246247257166033
661, -8.450503737891268
662, -9.538719910731743
663, -5.177079108233102
664, 3.496751898918774
665, 11.587043070812797
666, 8.641736619531002
667, -0.618858551500125
668, -6.546121488434892
669, -7.526160354732838
670, 0.6494863698044355
671, 14.450291421168004
672, 22.695755509291757
673, 24.413182715361472
674, 18.349800809658063
675, 7.883994069312848
676, 4.254441436248726
677, 6.600180500488932
678, 11.10129304181919
679, 14.592929896702117
680, 9.070302316245488
681, -2.5470389579450057
682, -5.763570470443483
683, -0.1914778621876394
684, 11.013938808166131
685, 26.395708929842385
686, 34.56385278105063
687, 34.26682858281174
688, 26.025096007387674
689, 12.01125819537765
690, 4.155689048001932
691, 3.603897617707844
692, 3.1919689212504636
693, 1.4986797771111924
694, -2.7336754756029222
695, -9.074313491769772
696, -10.59131516792604
697, -6.11008656453896
698, 3.53989271592809
699, 17.215269485002864
700, 19.371784337316512
701, 8.69317424697374
702, 3.319332753681465
703, 6.798741598015567
704, 9.829350289850481
705, 11.258899343344183
706, 20.28178165157169
707, 36.36420574751037
708, 41.47823418627422
709, 32.43142210879296
710, 26.797056646488727
711, 28.29338008656714
712, 24.147625178737144
713, 11.56447755643967
714, 1.47983826413747
715, -3.762795567586636
716, 1.5868041205058034
717, 18.181532698431965
718, 23.89048513834996
719, 13.604382581441769
720, 6.832428747472022
721, 9.325293701310784
722, 8.77292882651318
723, 2.093414077395664
724, -3.9349325690736805
725, -7.937599640612916
726, -11.041471381107385
727, -13.233394873679572
728, -7.557004021800822
729, 7.973234462066102
730, 24.603346123406027
731, 37.759739066877046
732, 39.61027987332682
733, 29.368703479483884
734, 26.620439098178394
735, 35.544689609035686
736, 36.27675541911731
737, 23.976694303938984
738, 9.781936037054493
739, -1.9228208510235163
740, -9.765231469067203
741, -13.521335835568152
742, -10.33883202980951
743, 0.18421021143967664
744, 11.213329222218817
745, 20.14738238323298
746, 21.842075376385765
747, 16.14770511210554
748, 13.161398817610916
749, 14.224504091523613
750, 10.484457960980308
751, 1.149743558895807
752, -4.2007639209341505
753, -4.681698277265696
754, -4.7194691581262305
755, -4.93080132545947
756, -3.5264889999666593
757, -0.627075582659927
758, 0.26817312621142264
759, -0.4573805280642773
760, 2.6923727474427324
761, 11.35805465046451
762, 28.6869956962546
763, 48.672590045011475
764, 45.60896812505143
765, 22.1965225024378
766, 6.392610364453958
767, 1.1664971353861802
768, 1.5029306260912563
769, 6.022435474090344
770, 11.688005223873915
771, 16.119091627861053
772, 14.35277342601239
773, 8.816281938856719
774, 9.287760952632198
775, 15.341382844824238
776, 22.889401067826384
777, 27.12341447765175
778, 16.24679971198475
779, 0.18043501375268534
780, 3.091488030882374
781, 16.51108342000225
782, 20.1334589759349
783, 15.09314222607236
784, 4.5757374228292065
785, -7.328511096135571
786, -16.0189441336006
787, -13.779445064072206
788, 11.792732461742617
789, 43.05895437567551
790, 53.46898894508058
791, 47.035620188376015
792, 28.184796333286158
793, 9.923124689593806
794, 5.267736149030952
795, 9.967618311793558
796, 21.352730809221157
797, 22.92775529109622
798, 4.517870726992896
799, -10.00361011123232
800, -8.63086884069753
801, -1.2143273375704666
802, 7.850996853801917
803, 16.847152656620437
804, 23.582811233391112
805, 23.199541667440826
806, 15.076449522428902
807, 16.45846945517542
808, 30.963014911544178
809, 41.80248341105971
810, 44.808061852694664
811, 38.66714833056585
812, 24.3605286232696
813, 10.263376400318975
814, -0.03447739996317978
815, -2.0264625944600994
816, 3.7907840026500708
817, 13.103957519766936
818, 22.847071130706354
819, 25.399651175206145
820, 21.236870700894087
821, 13.820512666295144
822, 2.972466326043559
823, -12.011269946488937
824, -24.878092816987646
825, -21.19718780351377
826, -8.09911476313664
827, 2.657163455035061
828, 11.216638805829461
829, 16.33007110413655
830, 15.567707742132825
831, 6.403283233627008
832, 1.2216511661958975
833, 9.094753727835723
834, 20.625330645058966
835, 28.254418637968683
836, 32.99813439105992
837, 35.36404805532675
838, 34.79892364369107
839, 30.971185664879158
840, 22.396166230854305
841, 9.22414562403901
842, -1.0189424954583046
843, -7.032507445273495
844, -5.006198942347055
845, 4.771216367314082
846, 15.520096668978567
847, 23.690547626044463
848, 21.30282495975962
849, 11.122100325160773
850, 5.2292186722934275
851, 3.002236170280412
852, -1.1354153508004856
853, -4.22608249528912
854, 0.6303515507224802
855, 6.299427999522322
856, 0.8316423283290533
857, -4.410851642247053
858, 3.0808483751357016
859, 8.922870999062525
860, 0.22365940191002665
861, -6.8908096332065725
862, -3.1482452954273867
863, 5.713531820520984
864, 17.578896287565385
865, 30.507822617210422
866, 43.071496967346775
867, 45.218480593359345
868, 35.37387872885756
869, 21.962503819259837
870, 7.905620310281847
871, 0.37958444913647327
872, -1.41828125093798
873, -1.274542733086946
874, 0.012197685930004809
875, 1.2723635288170954
876, 1.6040837330560862
877, -0.915030558410308
878, -5.590077728729739
879, -11.376379988446843
880, -11.609321053467738
881, 1.3875580475282732
882, 15.695105497139593
883, 21.257456425860255
884, 20.471830824421886
885, 14.816621139916151
886, 7.906663420317727
887, 2.6687908523094848
888, 6.754124102455535
889, 20.320527266701447
890, 24.079402037228647
891, 15.804248929126516
892, 2.7774846442684975
893, -9.849593692942108
894, -9.965026625253813
895, -0.975953288859273
896, 7.007093829079622
897, 14.428235579850025
898, 20.833090625483692
899, 24.078448452612065
900, 21.617389850998734
901, 18.745779995641442
902, 19.661053226705008
903, 22.2020534007479
904, 24.91815219418413
905, 22.795303480063012
906, 14.268593144181523
907, 3.127150941749278
908, -7.8065046381934735
909, -9.97873713771196
910, -3.4003689756609674
911, 6.1974843606381
912, 16.724795567410638
913, 20.856120229149838
914, 19.947114564888125
915, 17.4858943868162
916, 15.88533862321492
917, 18.20605860140131
918, 17.7259883696247
919, 8.867757315110794
920, 2.170211219264729
921, 2.3252281008271893
922, 7.458011211655048
923, 16.430713867397117
924, 19.377023925334015
925, 15.163224760850426
926, 10.71004871156265
927, 9.691033680163855
928, 17.547792010490866
929, 33.93289377743395
930, 52.97226078088852
931, 66.26553436945278
932, 60.400842362706044
933, 40.538316958722135
934, 12.416083268829425
935, -6.5483855367738215
936, -8.036594043409423
937, -0.3653374847099258
938, 12.419076193934416
939, 15.556431129057728
940, 6.047788358386697
941, -8.841212999770505
942, -23.79992714868058
943, -18.729888274611767
944, 2.222783948196593
945, 24.618216975281484
946, 43.57668654830377
947, 53.0039760851073
948, 50.32786308385084
949, 33.41991766457659
950, 17.21444677342197
951, 11.833767303047807
952, 10.600588107380645
953, 12.016540525980872
954, 24.009703461632398
955, 42.573606258839845
956, 44.99980503299366
957, 33.66981631700628
958, 25.05828586593134
959, 17.576010323593437
960, 6.107715320104489
961, -0.6056388551733107
962, 6.046436747773441
963, 11.291201319552783
964, 4.756681363713142
965, 0.18734724269506842
966, 1.7937823080928865
967, 2.090387718218153
968, -1.0403970497563932
969, -9.101270568740347
970, -16.811368168862828
971, -5.541904468339908
972, 16.370014567608905
973, 29.054898957193018
974, 34.111920048891534
975, 33.722968517922254
976, 18.48559522552614
977, -15.397288249646863
978, -28.783541319092365
979, -11.925582839187882
980, 0.8120305732386441
981, 4.603726463653857
982, 8.678136204495786
983, 11.329998840628832
984, 6.448830138544963
985, 2.419455256866968
986, 11.347024467687788
987, 21.188202941500094
988, 21.710008142367315
989, 16.373071269735647
990, 7.276378586473129
991, -0.3172149562119557
992, -4.796747874812354
993, -0.49968927029340193
994, 9.131308208364317
995, 8.516982283405923
996, 3.2815048794868744
997, 6.421998469815662
998, 14.034938036060339
999, 20.802505468966046
1000, 25.29305378665913
1001, 26.498612609790143
1002, 21.627986106610933
1003, 11.063172280766139
1004, 3.0068651664828394
1005, -1.383623937520042
1006, -4.5998034574954545
1007, -7.434551263706453
1008, -10.75078471139068
1009, -7.6496455400010746
1010, 9.38642298616196
1011, 19.14535918015008
1012, 10.801987237635785
1013, 6.1700470517571375
1014, 10.704544721910679
1015, 21.286223812575372
1016, 35.91407426812384
1017, 53.52829259234932
1018, 65.0834111011427
1019, 54.820987518672155
1020, 34.979015457268815
1021, 17.20362822202287
1022, 8.022865150387588
1023, 8.24313286993447
1024, 11.416081047385887
1025, 15.750011832656128
1026, 18.197624208841262
1027, 18.831500414564744
1028, 18.493369639443245
1029, 19.62367316292375
1030, 25.49139674127946
1031, 30.581612850999136
1032, 30.8510842261162
1033, 22.773195008313905
1034, 6.96999226205844
1035, -2.4450448391703503
1036, -4.908931995075818
1037, -4.372211782507748
1038, -3.101186488925123
1039, -4.633574899254654
1040, -4.3278526879694255
1041, 2.086029963832516
1042, 8.77016878244558
1043, 12.550406899835707
1044, 13.963045910495111
1045, 13.602272810994236
1046, 13.434748386754109
1047, 14.394368017224224
1048, 18.036152121726445
1049, 16.86350059436927
1050, 2.837066859622155
1051, -13.004049822383422
1052, -25.851692824144266
1053, -30.15167757547033
1054, -26.59781691413491
1055, -24.953676081786398
1056, -21.723353494606272
1057, -5.612810769571752
1058, 9.956415996207397
1059, 7.508819249672797
1060, -1.2513588218894256
1061, -10.077223593879808
1062, -22.276902561509814
1063, -33.973993459019766
1064, -18.780765910490118
1065, 11.617471329931504
1066, 20.946809539215792
1067, 22.450121703319837
1068, 32.20277320895593
1069, 53.33830838895392
1070, 89.18556892845527
1071, 144.04331076599783
1072, 205.03150280818
1073, 254.17692577119396
1074, 287.00676632997784
1075, 298.48044255147215
1076, 300.1346953312095
1077, 303.25415333863884
1078, 299.8637012177901
1079, 286.7825014644318
1080, 268.214526155386
1081, 244.69392992846724
1082, 214.78972240618623
1083, 179.63169659855157
1084, 141.40598221765094
1085, 104.00056837300372
1086, 70.12497838200852
1087, 42.039364698899135
1088, 17.242811086118763
1089, 5.5233610225586744
1090, 2.300663763090597
1091, -7.583351548975315
1092, -18.84122644211584
1093, -23.5755753010867
1094, -22.87770671231692
1095, -17.40480344232219
1096, -10.34443042265093
1097, -3.1255100373368805
1098, 0.24414008444409774
1099, -0.9107669590371188
1100, -7.641431503219792
1101, -12.112751774439857
1102, -8.179204744840035
1103, -3.093035938502453
1104, 0.40410641239122924
1105, 0.33366905354159826
1106, -2.786706995092345
1107, -6.909964477443054
1108, -7.1631202647663486
1109, 2.29491161058786
1110, 17.171529035070535
1111, 32.65454066315556
1112, 32.40837290423838
1113, 17.371166094895216
1114, 3.107665861814894
1115, -6.51176714975395
1116, -8.982066598229267
1117, -4.245447690102083
1118, 6.993160135642029
1119, 9.850227051092816
1120, 3.10864224188731
1121, -0.009306943120918731
1122, -1.0390124200264381
1123, -4.916423298276868
1124, -4.585626523560222
1125, 4.576515703256973
1126, 6.456926567518622
1127, -1.1683532076967822
1128, -2.574521098558307
1129, -0.5098756120469261
1130, -4.613273603719108
1131, -3.9830021245004446
1132, 10.283923404555935
1133, 18.8672141546931
1134, 16.63490775248215
1135, 14.593923471340531
1136, 12.54250774935349
1137, 7.646944775653765
1138, 10.685973672442515
1139, 31.149562366747205
1140, 44.994964801835295
1141, 46.220237522936486
1142, 49.705868284070675
1143, 51.48164902864028
1144, 37.46580216382108
1145, 19.629582702637663
1146, 8.878120021205177
1147, -1.5519432806731857
1148, -12.898393385502231
1149, -12.305515635762504
1150, -3.8030506253764997
1151, 0.2883688780389093
1152, 4.8673498683281196
1153, 13.707712494677935
1154, 13.180995286112648
1155, 2.4550635563423384
1156, -0.7234628933031217
1157, 1.2414201187209528
1158, 0.1965185962567375
1159, 4.028625781013261
1160, 17.763740567645073
1161, 23.659064776676587
1162, 19.66640819115719
1163, 18.407367078344805
1164, 16.983108866058274
1165, 8.619590610801879
1166, 0.48933075127615666
1167, -2.8617614386396326
1168, -1.1044650446274318
1169, 2.411709364030685
1170, -3.9219774079447234
1171, -12.288074203067026
1172, -11.622066081623416
1173, -4.8096234653685315
1174, 6.997539541762535
1175, 22.289758310265142
1176, 34.47087859794647
1177, 30.19152331358964
1178, 20.31774698514687
1179, 15.23479799768188
1180, 10.607224226243716
1181, 7.511965396005735
1182, 12.807948953643063
1183, 20.499230191994002
1184, 19.716398650068186
1185, 14.362062287040771
1186, 7.519274465764738
1187, 4.182543519691308
1188, 4.688571898910368
1189, 7.933379382511021
1190, 8.674399265182728
1191, 1.504130999104973
1192, -10.363973356930956
1193, -23.18886528146095
1194, -18.22641813501309
1195, 2.333605588484943
1196, 28.771337874859682
1197, 50.141240807967506
1198, 58.51215759232423
1199, 48.517047934712764
1200, 25.535003188512746
1201, 12.186966405993871
1202, 12.14412012405819
1203, 25.566533091987594
1204, 35.92955600851565
1205, 36.39881436092219
1206, 25.445112678271244
1207, 9.910997356697408
1208, 4.5121385240267955
1209, 6.917286276070172
1210, 14.496797079744056
1211, 13.32498502586077
1212, 5.665453385229512
1213, 8.102198927987956
1214, 12.740535827899748
1215, 10.983149507296503
1216, 3.862557217447147
1217, -5.520465255797717
1218, -7.930158785734875
1219, -4.33817639514632
1220, 2.565410281367349
1221, 9.744925368028362
1222, 13.114676392871615
1223, 0.2803314416644298
1224, -17.891112411387894
1225, -14.961930992576981
1226, -5.783315239068315
1227, 0.0561400328124364
1228, 13.641827102808747
1229, 28.98406636712798
1230, 20.7071341162482
1231, 6.041481748004799
1232, 3.535889705505724
1233, 0.3775567277969003
1234, -5.179875363078509
1235, -2.890753810709839
1236, 0.4731783567160619
1237, -5.070118143448326
1238, -9.545413097612936
1239, -8.382759881657194
1240, 0.8735418989467689
1241, 16.704969823456167
1242, 34.066170816640124
1243, 40.237944910833676
1244, 29.989191723307158
1245, 12.962489893512839
1246, 1.0223820446822174
1247, 10.940435265786164
1248, 24.188507280445265
1249, 28.129074531117567
1250, 33.590578788617904
1251, 40.951837402802994
1252, 45.57394276000832
1253, 52.14844094595469
1254, 61.774782976804545
1255, 49.792239725552236
1256, 21.43493300453929
1257, 9.967669400805562
1258, 11.144946053605963
1259, 20.998893343224836
1260, 41.6944659466767
1261, 65.04786747577464
1262, 71.70617243645665
1263, 67.79321168399406
1264, 60.80277470790588
1265, 56.358656363321415
1266, 55.50803753912896
1267, 56.19639172819325
1268, 51.56408892677882
1269, 35.44587358255012
1270, 15.61436288667096
1271, 0.20799519554793733
1272, 1.4673656019076589
1273, 14.716629212629641
1274, 34.33866856899954
1275, 47.215978336622584
1276, 50.36000956672956
1277, 46.06049505859187
1278, 42.04379494192813
1279, 45.03855776659907
1280, 42.727534696986595
1281, 35.64030531977551
1282, 37.68880620228492
1283, 37.63222511247841
1284, 24.46155769921029
1285, 8.462498620149063
1286, -6.112672524199525
1287, -19.499368663096675
1288, -18.966959368480957
1289, 5.061348519919875
1290, 25.035892904508955
1291, 32.09788526590637
1292, 25.302198932059127
1293, 16.290234125761344
1294, 13.87968732315062
1295, 16.302055468552
1296, 20.643763343303817
1297, 25.004629173525473
1298, 26.27079317263633
1299, 22.394541335299436
1300, 13.36538634060912
1301, 4.510628364229888
1302, 6.775668135334399
1303, 3.3799835669565255
1304, -11.033036425711998
1305, -10.291833029907139
1306, -0.4011499888711114
1307, 2.599710853138049
1308, 13.942088981567167
1309, 32.32325095812644
1310, 21.228990305203297
1311, -3.7200662252162147
1312, -16.44357763121002
1313, -17.657376953832
1314, -10.474251161371058
1315, -5.216075622869312
1316, 0.6543195564288453
1317, 9.96502472244606
1318, 15.32430380620167
1319, 16.19127838943882
1320, 16.425040053864223
1321, 12.139840575437802
1322, 2.4931211323355456
1323, 2.6918753823590578
1324, 11.549138825241926
1325, 20.4399577289189
1326, 18.450401848038837
1327, 4.746973551038309
1328, 2.4164590918931026
1329, 7.30717978007965
1330, 9.60816380601932
1331, 6.158545003616837
1332, -2.162312734445777
1333, -8.956403100260559
1334, -6.0958431277895215
1335, 11.243563760983307
1336, 18.465446418371812
1337, 12.837067603133846
1338, 1.9277265849611922
1339, -2.6779077367827995
1340, 3.940808968269266
1341, 17.19040636984414
1342, 25.32533445383001
1343, 14.1645525346064
1344, 1.128310484236863
1345, -6.321095055496016
1346, -5.9249775642038
1347, -2.863921715810193
1348, -1.5203763419028746
1349, -1.8989875358843165
1350, -1.673155621767819
1351, 4.124699839462892
1352, 17.978229968817004
1353, 34.99281150474667
1354, 30.433623895388337
1355, 14.706539306471086
1356, 4.427383024396022
1357, 6.444723000808153
1358, 15.777715390650656
1359, 13.123091006820687
1360, 6.0492828674885
1361, 0.9400355234267863
1362, -1.4993727814530757
1363, 2.9060804907285274
1364, 19.425598532372987
1365, 22.885739999863063
1366, 11.340976383490442
1367, 6.977959796602363
1368, 9.218712967094689
1369, 15.599384028908844
1370, 21.799042582424818
1371, 29.03122724988316
1372, 39.37532347638739
1373, 31.14036091007756
1374, 5.7489735402614315
1375, -1.9755420433848485
1376, -5.3746727596244455
1377, -14.166218247273491
1378, -6.030855637549166
1379, 8.49809011857019
1380, 3.6466441888624104
1381, 3.879148305345325
1382, 12.608246687519795
1383, 7.593029473831166
1384, 3.0899757099664384
1385, 10.006631511527303
1386, 13.469926357327267
1387, 14.853658528408005
1388, 20.016360566758976
1389, 13.615223366767168
1390, -2.1188397447081115
1391, -3.172969432239597
1392, 2.347514378945334
1393, 9.080042787168395
1394, 22.808774560681286
1395, 32.23794097942141
1396, 23.931721274375377
1397, 25.483673899269434
1398, 35.919051460805576
1399, 31.098732799523987
1400, 29.04140885913648
1401, 35.05919181760851
1402, 23.353774880332367
1403, 11.97961720709145
1404, 20.880399645070383
1405, 13.78097261762764
1406, -3.031515453092652
1407, -2.1236857617038822
1408, 1.3129090651746083
1409, 3.4201942727270307
1410, 12.991049560358533
1411, 28.73014795941708
1412, 45.44204336034886
1413, 52.85808837431955
1414, 49.10036553853001
1415, 34.222380147497915
1416, 11.78759713870113
1417, -4.735633840558421
1418, 7.305824835941394
1419, 21.43174872913778
1420, 25.643324039104527
1421, 29.208232085406962
1422, 36.26607457955265
1423, 47.29744678205384
1424, 48.823589795249745
1425, 35.418301994748845
1426, 5.172274674120217
1427, -14.337202039796693
1428, -17.740662236638173
1429, -7.142632047384495
1430, 2.318272671672048
1431, 4.9282287463661305
1432, 3.6454517503987063
1433, 9.009322091957984
1434, 23.696711456538196
1435, 23.018725065198623
1436, 13.068509737116983
1437, 5.194650843521913
1438, -1.360924227406258
1439, -3.329995752667628
1440, 5.857422580499588
1441, 11.34251026996185
1442, 10.223957274597524
1443, 12.08023401630976
1444, 14.41608350327715
1445, 14.324885532694225
1446, 6.854046666160684
1447, 1.3847500160238724
1448, 3.55351374686893
1449, -1.9223598176079122
1450, -8.323098145644963
1451, -5.173802314081286
1452, -2.049467398657498
1453, 0.005143041973269646
1454, 2.9778744138081947
1455, 3.944626314954803
1456, 5.43175723410809
1457, 16.22222665916661
1458, 25.431791110035874
1459, 24.913240882502805
1460, 5.020460217265736
1461, -10.8439324680769
1462, -9.72491276541814
1463, 0.9081755058421095
1464, 13.98770712118062
1465, 21.74036503002526
1466, 17.896199828826184
1467, 7.71650240790018
1468, 1.0209766191114795
1469, 3.3083426682371737
1470, 11.817419229661027
1471, 18.02821786386494
1472, 17.844692678481124
1473, 8.653098591976686
1474, -10.552505761605062
1475, -15.70469135567896
1476, 0.28928865650027547
1477, 28.31393979786685
1478, 54.32349910328617
1479, 66.75596348089948
1480, 50.19392824224201
1481, 34.81047784047564
1482, 37.23522625380042
1483, 33.573572858851776
1484, 31.361519610893083
1485, 36.7494929756358
1486, 32.3447324818344
1487, 24.18601251720429
1488, 21.35637681332969
1489, 19.78980484331123
1490, 16.54755706530659
1491, 9.594631686626826
1492, 7.219781107526387
1493, 3.617279976327154
1494, -10.907211104982707
1495, -9.499452676114288
1496, 3.868372873716453
1497, 7.614099960400154
1498, 3.7062170332048936
1499, -4.0192326643580145
1500, -10.430597931574766
1501, -5.817170150190577
1502, 11.82511950724006
1503, 37.72327587370182
1504, 53.075931300139246
1505, 52.17958841846803
1506, 40.27407089856911
1507, 21.614666510505685
1508, 2.3199077699014197
1509, -4.700655133629425
1510, -4.286901986570001
1511, -0.7838369140406485
1512, 0.5409673868753089
1513, 2.9587024725585707
1514, 6.166262828871595
1515, 0.6379592031089487
1516, 1.0040520406294036
1517, 12.174594239236285
1518, 16.239459421120728
1519, 22.244045610240164
1520, 30.882932599458172
1521, 16.740910309242736
1522, 0.39931459821832505
1523, -4.334530005111901
1524, -6.723340642809944
1525, -8.625606548499945
1526, -9.372926741138826
1527, -3.5004226003275107
1528, 3.151420322055401
1529, 5.825769816614184
1530, 2.521780033014693
1531, 2.761962667065518
1532, 10.640976258785031
1533, 14.770212543597381
1534, 14.654853288579716
1535, 10.612091528114433
1536, 1.9219888135091878
1537, 1.3791801391103036
1538, 12.14352859917858
1539, 12.886078403762212
1540, 4.256491502981362
1541, -7.496145872412853
1542, -8.698660125319293
1543, -9.238874487163912
1544, -10.682421727372002
1545, 5.076610584636683
1546, 18.777522826588438
1547, 21.672293933865603
1548, 27.924607156384354
1549, 22.589280679753983
1550, 6.795352180774671
1551, 8.893318551230095
1552, 17.690031935484285
1553, 24.18465089374581
1554, 23.293289010983244
1555, 12.163988783746845
1556, -3.0237006867921536
1557, -5.947387396576232
1558, -7.033860557410435
1559, -8.815787056710406
1560, -8.439852053186542
1561, -10.373059352668406
1562, -10.931348274744778
1563, -2.1893400443302653
1564, -1.246996607241499
1565, -8.59736167525648
1566, -16.701374650506978
1567, -13.056862732199988
1568, 0.9524459557658247
1569, 18.216785660745927
1570, 23.823616435654003
1571, 18.72270901482807
1572, 12.942980821532501
1573, 43.64524567502349
1574, 93.12315581153393
1575, 133.53895418516686
1576, 157.2391986582495
1577, 177.26740314530616
1578, 202.34928552064162
1579, 231.01351749842183
1580, 252.27778585750843
1581, 264.16814883749385
1582, 276.0829528970189
1583, 277.3386730213467
1584, 262.4125508390089
1585, 229.97883328943112
1586, 189.9414893571427
1587, 147.14471321723727
1588, 104.08378044593815
1589, 57.93834061283701
1590, 23.70572446793767
1591, 8.24667130277362
1592, -1.0572860124739236
1593, -5.601414152471079
1594, -7.358567399797494
1595, -18.74906495800701
1596, -17.711606961757298
1597, -0.5918149770059244
1598, -4.16844396073634
1599, -6.434384572281715
1600, -1.4040984484922774
1601, -0.6809407557857412
1602, 6.518101905116282
1603, 17.837076519526363
1604, 20.685823511874787
1605, 9.865403122084444
1606, -5.437978534718923
1607, -13.91767602482696
1608, -16.672826377186084
1609, -4.625014152253016
1610, 23.70288877033522
1611, 42.70780677711832
1612, 41.984197779912165
1613, 23.995211736412784
1614, 5.747921078563195
1615, -5.798117496708528
1616, -6.052969020523278
1617, 8.44661591234626
1618, 13.463473270986924
1619, 15.371745839175901
1620, 25.164841541292844
1621, 25.08354103526176
1622, 23.243424265498334
1623, 22.912020228354322
1624, 11.673094966934741
1625, 9.276057724918928
1626, 19.333637707691196
1627, 30.10530664712678
1628, 31.590719994273286
1629, 27.462848191462626
1630, 25.354140956040737
1631, 21.145198159350002
1632, 15.599178302058817
1633, 8.850019088032923
1634, -1.3389623450934778
1635, -3.8792279272427095
1636, 5.266909391150421
1637, 22.30895022679715
1638, 30.39131119515355
1639, 29.455028043591028
1640, 26.08605762213824
1641, 24.44084953443462
1642, 15.564665052489772
1643, -1.8599424835226728
1644, -9.406409953872071
1645, -8.215034582328371
1646, 2.226288886228076
1647, 21.554902167233195
1648, 15.928892868525963
1649, -1.4597991067387284
1650, -8.896405451922647
##END=



