##NAMES=
##LOCALITY=
##RRUFFID=
##CHEMISTRY=
320, -17.652415087562986
321, -8.010406614520434
322, 0.18955380414899992
323, 4.8893340500899285
324, 10.708647625212507
325, 25.51357466958052
326, 44.292698656206085
327, 51.336968779847666
328, 45.558589798415596
329, 31.503773841363
330, 10.544779193208342
331, -5.479838284778452
332, -12.257781587398313
333, -9.515583198949571
334, 4.229534978147967
335, 24.17036786024437
336, 32.828036085958956
337, 30.939922195798317
338, 29.180077065328987
339, 29.160769996087765
340, 26.620198902866832
341, 19.94204593575614
342, 13.070051407658866
343, 10.556584960167129
344, 12.271587174957858
345, 18.610723329758912
346, 27.136241617427004
347, 33.09424278302686
348, 35.556197948569206
349, 30.33033377033098
350, 16.64835778777433
351, 4.713828567314522
352, 0.25602020466430986
353, 2.7141186569742786
354, 12.204468670543065
355, 22.84534476798035
356, 21.180192090521814
357, 9.424251600227763
358, 1.7388231825134426
359, -0.19638661594672158
360, -2.554835621899656
361, -7.338015496915432
362, -9.499192126561866
363, -5.783209349769095
364, -0.8713396962411935
365, -1.1902656021884468
366, -2.5895253506459994
367, 6.587514198350618
368, 24.860400268195008
369, 33.38827274218875
370, 30.009526362556244
371, 27.25064952888806
372, 29.363816948286512
373, 30.701084760982667
374, 27.36962765667613
375, 22.608984972550388
376, 21.183036078034092
377, 21.642199827237164
378, 19.620112498129856
379, 14.886382531718482
380, 7.7506916856182215
381, -0.5445308320695403
382, -4.291188467270331
383, -1.6845186918071704
384, -0.5302395011931367
385, -6.1747930577876105
386, -12.63237136836051
387, -11.295880456268605
388, -5.397278489708697
389, -3.811441222514077
390, -5.820637125199937
391, -5.5300095511511245
392, -2.44437758251388
393, -2.3967943383304373
394, -7.180947760708477
395, -10.15315491029196
396, -7.363276962588316
397, -2.5611475946816427
398, -0.1410833504060065
399, -0.43636712103580066
400, -4.797513663540485
401, -12.089411698090771
402, -15.755644451547596
403, -15.490960306640773
404, -13.252947403979306
405, -9.286441144319724
406, -2.2854155819513835
407, 8.880509838837497
408, 21.8055461284348
409, 34.57438127380374
410, 50.12465569331289
411, 72.97474093739947
412, 96.39125889493698
413, 114.49685407678498
414, 128.155058335361
415, 145.91395448000185
416, 168.8839359511403
417, 190.6891522821552
418, 209.164521513826
419, 224.3260422967578
420, 236.18366187483207
421, 247.21059236137444
422, 260.38012741637976
423, 270.06638178786216
424, 263.75849239199397
425, 244.08343161837547
426, 223.4885988369033
427, 203.38644090879643
428, 184.56646222834024
429, 167.139292291954
430, 149.91244181716775
431, 132.39129792269614
432, 110.88980912925126
433, 82.81789244500851
434, 51.15906920413454
435, 25.00002285037317
436, 6.292544999085294
437, 3.96079756465042
438, 14.033274955862908
439, 19.808982226046282
440, 20.962280518161606
441, 24.258185937574126
442, 31.010697752351007
443, 29.299541871978363
444, 14.621130991349673
445, 0.976665093574411
446, -2.039122503539147
447, -0.46881450350792875
448, -1.3148752828828947
449, -3.307088338124231
450, -3.6387441324823158
451, -1.752718833230574
452, 4.363711364397204
453, 14.355401436167995
454, 19.969205954360405
455, 20.182705445788088
456, 21.684493434503565
457, 26.547367604927786
458, 27.504674412401073
459, 20.47901977025049
460, 11.650883295936183
461, 7.1019655922209495
462, 5.18194543730533
463, 1.6253353720649102
464, -2.8411829496299106
465, -5.33251672251663
466, -6.462213507867091
467, -9.166319932672195
468, -13.809042736726042
469, -18.235601039560606
470, -21.85496021084873
471, -16.472750275693215
472, 1.7407139555780304
473, 19.979421705039385
474, 28.361149869700057
475, 30.351346749579534
476, 29.926439882878185
477, 25.576341793493157
478, 14.39514099957887
479, -0.4160750691917201
480, -8.699205418361998
481, -11.08481562563884
482, -10.57250587695944
483, -7.244796468809909
484, 1.6634508496672424
485, 17.053364608811535
486, 26.645778352259185
487, 25.692354350659116
488, 18.833223256840938
489, 9.018463097242602
490, 0.6901176746923738
491, -3.233003720378292
492, -0.39997200749712647
493, 14.232695982385849
494, 31.74005477411265
495, 27.330157659889665
496, 5.193267219641712
497, -9.710250778880436
498, -16.97922778891825
499, -24.313891758215505
500, -32.707009431311235
501, -27.206353711105294
502, -2.993315550492298
503, 14.80025435731659
504, 12.859416453998165
505, 5.723051243104237
506, 5.269954665479418
507, 7.449710368282467
508, 7.419579692506886
509, 7.624767693090689
510, 12.935741357187908
511, 23.746015190126855
512, 40.334588513796916
513, 63.483879417556636
514, 85.35124011516837
515, 105.14136042571681
516, 120.471789614935
517, 131.07799803966464
518, 140.0483776814308
519, 148.1144048098222
520, 147.50021979176472
521, 134.54695629669732
522, 115.5437836942383
523, 95.0070390609244
524, 71.9451482295417
525, 45.24566974229219
526, 26.101199407753484
527, 23.975406686452516
528, 33.8585930518484
529, 44.15150085021196
530, 51.79129657701833
531, 60.26784881396634
532, 68.59240520439107
533, 69.32326955285407
534, 60.98714094955449
535, 40.79475381182601
536, 9.550150601475252
537, -7.883011602547413
538, -5.264139846588478
539, 2.819626360897928
540, 9.650922893294592
541, 16.50818681711644
542, 22.865179833677757
543, 24.911352715183057
544, 18.423022886008766
545, 13.636271092198513
546, 23.720883490736014
547, 43.370499233431474
548, 55.130005218647966
549, 59.28088934361767
550, 58.75517379423127
551, 54.72393908005324
552, 51.63199004118178
553, 49.77982370434802
554, 47.27192472297975
555, 43.76508862881474
556, 39.5128425651892
557, 34.434564908033735
558, 25.567945429143037
559, 11.981059266091961
560, 4.4551050298528025
561, 7.33533919988713
562, 9.961219280852674
563, 3.3644702784672518
564, -8.178264482122813
565, -21.573964769856957
566, -32.27769661647153
567, -32.42028058189271
568, -22.83039921073714
569, -4.433520601397049
570, 20.110820698026146
571, 38.63528691890997
572, 48.19981563656802
573, 40.41458255574116
574, 18.683663367459758
575, 5.651668860645714
576, 3.687394894562658
577, 0.8521170416643145
578, -4.542839703421578
579, -1.2101914542849954
580, 13.592651968014252
581, 22.427353315672008
582, 18.98744301588522
583, 15.33976445643475
584, 17.45465727661076
585, 17.064353386732364
586, 8.664710786225442
587, 2.382913713249309
588, 5.901714308522969
589, 14.773357338137885
590, 22.542784252310412
591, 25.537277922008343
592, 17.82724804854479
593, 4.494996290302424
594, -3.09375833944614
595, -7.3867802409859
596, -14.397140113429032
597, -20.66782550701737
598, -10.981119587969715
599, 11.957044766840227
600, 25.890719561912192
601, 29.14276033629858
602, 29.23968978818675
603, 27.081311724450188
604, 19.604414830293535
605, 6.829965852326495
606, -2.479452042308367
607, -6.962670852789415
608, -7.218180992609632
609, -3.5200036966348307
610, -0.9291716920870385
611, -1.5617519583547619
612, -0.6079449220233073
613, 4.761554748240087
614, 8.216751659137572
615, 5.177718443322192
616, -0.12748692419745566
617, -3.863721644004272
618, -5.629110237005989
619, -4.698226531527325
620, -3.1082276410788836
621, -3.8087419101220803
622, -3.357057424015693
623, 4.6709601893803665
624, 15.436036755398618
625, 15.735698749722815
626, 9.044665248115962
627, 5.9284422696778165
628, 6.915533543675338
629, 9.995410831882054
630, 13.52918197859799
631, 14.405981785531822
632, 12.812826036640217
633, 11.208635135230907
634, 10.124180112099111
635, 10.781350523574474
636, 12.91782769053816
637, 13.110375077298613
638, 10.688329358576993
639, 5.850210116359904
640, -0.19503998398568
641, -1.2082656088405201
642, 4.33712229538196
643, 11.345258525311237
644, 17.283509989284084
645, 18.786659946008967
646, 14.689304680603982
647, 10.912857768684717
648, 10.163627182113487
649, 8.224577652338212
650, 3.671602787756001
651, 2.344848284039017
652, 8.130023032942063
653, 18.491118933574853
654, 30.282696506543743
655, 37.41646356886622
656, 34.590874875814734
657, 23.62179369363048
658, 6.359426892226111
659, -7.515778440347276
660, -8.678586791275848
661, -1.7176149575097952
662, 7.945570335143657
663, 18.411425393193895
664, 24.487349788069878
665, 25.375506921791384
666, 19.762328442977832
667, 10.755018062952331
668, 4.548255289510507
669, 1.4910886027050765
670, 0.6727998975611627
671, 1.0260830703182364
672, 0.20944907475723085
673, -2.1707530240596498
674, -6.9052894044284585
675, -10.800305031652442
676, -3.0397767242238842
677, 12.54385782582267
678, 18.290597941377655
679, 14.785811348484458
680, 9.481467275331397
681, 3.091433482244611
682, -3.979722894076531
683, -9.578096997064222
684, -1.6941067168813788
685, 17.940972403558135
686, 30.217191096273837
687, 33.91879100782944
688, 35.93687031893978
689, 36.78493268058128
690, 33.71771977207345
691, 27.329784865850343
692, 23.9552098446361
693, 23.510168185579914
694, 18.219734566841908
695, 7.7418273332968965
696, 0.676102537038787
697, -2.5811851275248046
698, -5.749310311794943
699, -8.221651368525272
700, 3.258613748186235
701, 30.38733144994876
702, 51.202513127724615
703, 60.098087316705914
704, 52.01623700552091
705, 27.91240453686396
706, 9.558289399568821
707, 3.546864806134181
708, 9.904004159154283
709, 28.107679901332176
710, 42.63948885422133
711, 48.81421536898597
712, 38.747950276200754
713, 12.330520779353265
714, -3.9743202727290736
715, -5.303907441922547
716, -2.030948089418871
717, 2.766429562699159
718, 4.920304397423024
719, 3.115008199355543
720, 2.327111590600907
721, 3.6559587342312625
722, 3.651326931458698
723, 1.609483728030682
724, 1.466634194762264
725, 3.8795076532574058
726, 2.166149897890591
727, -4.880780281992429
728, -7.084877476641395
729, -2.1877381195681664
730, -0.17525498712939225
731, -3.026687278823829
732, 1.9930988289411289
733, 17.499356120817538
734, 20.69240784400563
735, 6.751588995173279
736, -1.3782414272600363
737, 1.3363022837324934
738, -2.5426553794459323
739, -16.314693022607116
740, -17.632558931199583
741, -2.283028567816473
742, 7.62749677609645
743, 7.262438698707683
744, 9.51879673274334
745, 16.545308180208394
746, 17.042224277633522
747, 9.638342936199933
748, 7.180007691345509
749, 12.235443944512099
750, 14.02914783615688
751, 11.04462212940689
752, 9.185940801574816
753, 9.157147321388038
754, 6.891209992601944
755, 2.160945102306414
756, -0.8086822516193024
757, -1.357222470616307
758, 1.746351002927895
759, 7.655642511976566
760, 8.150989680419116
761, 3.701796959197509
762, 4.177580777339699
763, 7.80901508151328
764, -1.7452204995352076
765, -19.211017480892224
766, -11.931243200148856
767, 16.711447838818003
768, 35.13655377970372
769, 42.34665106844568
770, 55.11477678174833
771, 68.17534875972024
772, 57.82202393683383
773, 32.41972028429291
774, 24.365885912680824
775, 31.084762552246502
776, 29.321104944695435
777, 19.399287357424782
778, 5.381351592134251
779, -7.3363929190868475
780, -9.330983330512026
781, -4.736445466074201
782, -2.059761365200302
783, 1.2015804787388333
784, 9.967573005705617
785, 18.14103853970255
786, 15.845194947476102
787, 10.013312855879121
788, 10.766076121337392
789, 12.77975997537851
790, 9.302007654706358
791, 4.694727223873997
792, 4.163913480069823
793, 4.599755471694152
794, 3.2335361921559524
795, 5.587033451807656
796, 16.312927621500876
797, 26.542381890356864
798, 30.56386576958039
799, 25.685676708754272
800, 10.732761192224189
801, 1.5682348813274984
802, 4.5075170486043135
803, 14.373360574175422
804, 27.65236191938311
805, 31.867160885185513
806, 23.216695516822256
807, 12.509953231050986
808, 5.225341956187094
809, 9.306749951105303
810, 25.15967141151623
811, 32.9973560142721
812, 29.34631834745278
813, 18.804228996326856
814, 4.0550574937333295
815, -4.619362971860937
816, -6.434350665288093
817, -0.7329777686568377
818, 9.92459167771949
819, 13.956521568400149
820, 11.07979870618965
821, 3.583405715178742
822, -5.532467856930452
823, -11.07114965026858
824, -11.74494196009664
825, -4.469936850052818
826, 9.380403351686255
827, 27.58550001793128
828, 42.516467551502956
829, 45.3650239156118
830, 41.09665715374149
831, 34.97573884773101
832, 23.783801272603796
833, 5.01851082710391
834, -6.146631997410168
835, -1.4458975870470567
836, 10.25261918643082
837, 24.93328198077279
838, 34.62971924295107
839, 36.794402305374206
840, 36.66110831914193
841, 36.007927126539926
842, 35.21124483042195
843, 34.445274159624205
844, 34.27162191076741
845, 33.832836719070656
846, 27.709613416996035
847, 16.77859020687947
848, 8.344260772983034
849, 3.2105130661566363
850, -1.9614862351877491
851, -7.987916085960478
852, -15.668418184647635
853, -20.378436084843088
854, -11.882359491308307
855, 2.590296811837561
856, 11.75505415066391
857, 15.26829115702094
858, 13.185924389951651
859, 5.46687154115034
860, -7.198831374846122
861, -11.8423811055236
862, -0.43025759987222045
863, 12.338279342875467
864, 20.350851766954747
865, 25.606521389195223
866, 29.3779899539868
867, 32.764911788818154
868, 36.64618684968082
869, 45.24808918150029
870, 54.93801967982927
871, 42.58843589845628
872, 13.89686451345915
873, 4.076119152603042
874, 8.45185968145006
875, 8.201352435239187
876, 6.311541221713924
877, 11.104567995399066
878, 14.06866018772098
879, 2.9635504925086025
880, -6.414087832362384
881, 1.6966798996900252
882, 12.443554473755285
883, 13.878300473083527
884, 7.585865387609374
885, -4.934499865997168
886, -11.228172441860806
887, -7.748020603329678
888, -4.565983502155177
889, -3.1311521984744104
890, 5.277268468712464
891, 19.90457897345823
892, 23.9953969938947
893, 18.762615829101378
894, 15.864434881824764
895, 13.226057712963211
896, 3.4066117648631007
897, -5.01376491143219
898, 1.912660097143089
899, 13.370794893336097
900, 15.131952266523058
901, 9.213164891169072
902, -2.4875566202167647
903, -7.584637430041312
904, -0.5182429841452176
905, 2.0886512201541336
906, -4.46535503012683
907, -3.075159863142744
908, 8.297249698653559
909, 11.828836900983788
910, 9.017808056693411
911, 20.753342601477925
912, 37.215811477512034
913, 26.35378097602006
914, 2.3043171949798307
915, -2.97300783846822
916, 2.153344701309379
917, 6.702285752678108
918, 8.93321479701126
919, 6.442899106709774
920, 5.012012539007628
921, 7.538592767770297
922, 16.83961616612487
923, 31.628874169513438
924, 37.12305142851801
925, 30.620284641724083
926, 18.279838665833722
927, 4.382047063501886
928, 1.672459312551382
929, 11.462674437118494
930, 35.74224168222145
931, 53.656387900770824
932, 32.92373977551779
933, 5.590848357373034
934, 5.777799914040315
935, 12.07337629215317
936, 10.114698133872025
937, 4.898708303820513
938, -1.0356985998150776
939, -9.083457203488251
940, -17.363828526114958
941, -8.712526950514075
942, 14.84188473542099
943, 31.299342861172136
944, 35.646664624799996
945, 21.102218651639305
946, 1.8557016346317141
947, 0.7118719572590635
948, 5.4541978581578405
949, 4.905881642160239
950, 6.377408841854958
951, 13.871796859868937
952, 18.556757400204788
953, 18.05286649152822
954, 18.042208510461933
955, 19.53770847691476
956, 21.06090238181332
957, 20.27348025500487
958, 10.713026864430958
959, -0.39322198056515845
960, 1.3743358378492303
961, 5.407191874021009
962, -0.471241799677955
963, -2.6073418369346655
964, 7.856940684760048
965, 21.039245411472166
966, 31.44996222529744
967, 37.101287417845015
968, 35.560425528597534
969, 16.719268347822435
970, -11.18463728514962
971, -19.222291447098996
972, -11.422971068027891
973, 2.9062004310317207
974, 14.570534706006129
975, 11.88292983001702
976, 3.8609999533205155
977, -2.9552076900063184
978, -1.0219676834658458
979, 10.808006823449887
980, 14.622395843265167
981, 8.459367082404697
982, 1.6343581363717021
983, -2.5780202795317564
984, 0.6191290099945945
985, 5.192780690274958
986, 0.7979853289775747
987, -2.5142125155803114
988, 3.4334721074383197
989, 11.600994861159052
990, 17.35297448917163
991, 14.688658986550308
992, 4.226875194075092
993, -0.008640845691843424
994, 3.406991671249216
995, 13.746201195835056
996, 29.2239936541132
997, 43.372161612345735
998, 46.70874327707452
999, 30.048041526270026
1000, 18.786529280075683
1001, 27.432228398977713
1002, 29.627865706345347
1003, 19.833891832760855
1004, 13.187608610249754
1005, 9.128489590284971
1006, -2.5694751844780512
1007, -14.404808911424425
1008, -8.954065691541473
1009, -1.0558950258896402
1010, -6.364193888635782
1011, -12.017671885773325
1012, -11.281280747489745
1013, -7.246621718950337
1014, -0.047628500330120005
1015, 13.77752869008782
1016, 31.57009802642642
1017, 37.61432956901808
1018, 36.534655517105875
1019, 38.3392153537402
1020, 42.328308501565516
1021, 47.39218713000673
1022, 43.60280509829636
1023, 27.679910031927193
1024, 15.908603855446472
1025, 14.994084270882013
1026, 28.691399321297467
1027, 48.660736167690175
1028, 55.924636456010376
1029, 48.64407063702993
1030, 25.75504627037799
1031, 5.09512150541741
1032, -0.80131488772804
1033, 0.7260450760936692
1034, 6.437352567410471
1035, 10.664590845636667
1036, 10.424442200539943
1037, 1.7728324090408023
1038, -5.96311253589829
1039, 3.7658191822397384
1040, 12.622780328260887
1041, 2.9926028375343776
1042, -2.1820227025777967
1043, 4.959532665260667
1044, 4.487719459744767
1045, -4.601479348602425
1046, -6.325153711307394
1047, -4.221110788091664
1048, -9.452860068432074
1049, -15.41453587518572
1050, -14.697989421636521
1051, -18.33084585537472
1052, -30.261055121756726
1053, -25.722946991952085
1054, -2.985478116657305
1055, 12.530839777340589
1056, 19.189726705583325
1057, 20.84404329494555
1058, 10.112417632049528
1059, -20.144837813826143
1060, -35.28006823739861
1061, -19.07593388661553
1062, -8.71191147274476
1063, -9.182904273996883
1064, 2.901838830028737
1065, 25.967485419701916
1066, 48.67513888866051
1067, 80.46682017501826
1068, 132.9649160158865
1069, 182.2768989814299
1070, 220.01198247170032
1071, 246.88882983538815
1072, 267.280977840338
1073, 299.33860888845993
1074, 337.6328198717215
1075, 366.2870214227373
1076, 380.5074147910291
1077, 376.3409384418742
1078, 361.96646092797573
1079, 341.3024923639982
1080, 315.44099639860224
1081, 284.1044545566856
1082, 245.42639562188242
1083, 199.48701924564375
1084, 146.75509701743476
1085, 97.74170321132624
1086, 69.54184145782983
1087, 45.038573484796416
1088, 18.639432017746003
1089, 0.21691794661910535
1090, -9.777251259016793
1091, -11.763599896917185
1092, -12.915006544181324
1093, -22.048435197989875
1094, -29.986015412947836
1095, -31.628588153162582
1096, -24.80092829418254
1097, -11.778566250526637
1098, -5.838460587102418
1099, -6.095721166718249
1100, -9.069691717042588
1101, -8.273851969136558
1102, 1.4465474692078715
1103, 13.130547476343054
1104, 21.716518958737197
1105, 15.66184027725285
1106, -0.9056679220493606
1107, -12.40980470301838
1108, -10.643044774561531
1109, 13.668206384665154
1110, 30.76385822855582
1111, 26.68620737347692
1112, 13.541768642394345
1113, -2.1081696796154574
1114, -7.450695312194057
1115, -4.915820404441092
1116, 1.1630393850955443
1117, 3.979248191984425
1118, -0.5121172225672126
1119, -4.082047700101157
1120, -4.432181843900253
1121, -0.24124894163878707
1122, 4.562492523817127
1123, 1.7681933483318062
1124, -1.5737115267484114
1125, -0.5524289409404446
1126, 3.451848809979765
1127, 7.366193396893323
1128, -1.6625472098603495
1129, -14.558288679880661
1130, -9.731998010259758
1131, 2.4576715084608622
1132, 13.004126247597014
1133, 16.246306083619857
1134, 12.178911493207579
1135, 12.549842471838929
1136, 22.331453041571876
1137, 47.8163681891333
1138, 64.99638682549357
1139, 52.94607141613233
1140, 34.409099456239346
1141, 17.706959467039724
1142, 2.9558505150444034
1143, -5.217459023668198
1144, 6.70737563812645
1145, 14.990743500410645
1146, -1.7214628007995998
1147, -0.27623247921656
1148, 27.537631139738096
1149, 39.32490463842987
1150, 37.85907468608957
1151, 42.39107729805801
1152, 42.56654460241771
1153, 30.387886202990103
1154, 25.767382343990448
1155, 30.14010221803119
1156, 17.817475298111276
1157, -0.9941615771217585
1158, -0.3651216922958156
1159, 8.003987979954672
1160, 15.178807851978036
1161, 12.64477712800499
1162, 0.30045507548993555
1163, -12.93977162370902
1164, -18.98563432784931
1165, -4.831275743373681
1166, 19.111061101831183
1167, 43.5076760918987
1168, 45.273742102506276
1169, 27.87584855407613
1170, 20.770887132288408
1171, 18.24421378960278
1172, 10.339108754533754
1173, 6.122818447128793
1174, 6.888910156884776
1175, -1.4559281432502758
1176, -11.923681850204957
1177, 0.20528895002325953
1178, 17.377293087293765
1179, 21.652219315501497
1180, 22.77613448013426
1181, 24.643473426897344
1182, 29.329681278486987
1183, 33.54206309334086
1184, 30.963324495380675
1185, 21.25033261553199
1186, 5.190601009553575
1187, -8.034325632707805
1188, -11.001036739911342
1189, 16.76419030131501
1190, 49.60275515422336
1191, 51.33946458757873
1192, 42.230290778441486
1193, 29.84851739552687
1194, 8.28512859551256
1195, -13.173551666083767
1196, -17.68242718282454
1197, -12.244915607998337
1198, -1.2456313357452018
1199, 18.028695226795662
1200, 43.159388336222946
1201, 56.4808868869186
1202, 54.455244867292095
1203, 35.34755487478378
1204, 24.55408557130022
1205, 33.33180567858244
1206, 48.03086409721482
1207, 62.105268203107244
1208, 65.99930681230444
1209, 50.85199284135069
1210, 15.48515300810459
1211, 3.055679616348243
1212, 9.756905814207585
1213, -0.7340338472986332
1214, -12.264633941150805
1215, -6.79251272815236
1216, -2.258004950454506
1217, -1.1293094166148876
1218, 12.929431102388207
1219, 23.242435750799814
1220, 2.001919136501783
1221, -9.156169420029073
1222, 3.9156730891199913
1223, 2.1087921004609598
1224, -10.846229013246102
1225, -13.113314598124816
1226, -8.506560858823377
1227, -0.052993804575635295
1228, 9.875948452591729
1229, 16.26914169352949
1230, 6.7465391791083675
1231, -5.2787324372643525
1232, -6.400089035015299
1233, 0.15291160532297
1234, 8.01924649286866
1235, -5.985496954840528
1236, -19.483886930829158
1237, -1.3997605744211796
1238, 20.453120261039203
1239, 32.85704043734495
1240, 33.09346637861563
1241, 21.83141964969036
1242, 1.437086265850212
1243, -1.4847909072923358
1244, 22.150887826104736
1245, 42.45207125488059
1246, 48.45511134569324
1247, 28.852916620419364
1248, 12.331007413650696
1249, 16.130113586927564
1250, 19.497581712135798
1251, 19.944437561546238
1252, 26.17668306963833
1253, 25.30673858945829
1254, 10.688400474346508
1255, 15.422951316334547
1256, 34.55930902148293
1257, 29.921700071295163
1258, 18.850165049439056
1259, 17.224274537675228
1260, 17.71194448473352
1261, 20.627709823289933
1262, 34.651447924533386
1263, 45.15161524618043
1264, 41.225871970585104
1265, 41.964676217398846
1266, 49.93728497596521
1267, 54.99418217134007
1268, 50.52449142282012
1269, 32.451744405471345
1270, 24.834150338067957
1271, 32.31745072902868
1272, 34.57786198060012
1273, 31.35650454458346
1274, 24.132697150616877
1275, 16.679874055656
1276, 9.948113658707825
1277, 4.129093912877579
1278, 0.40656294965310735
1279, 0.009724931149321492
1280, -0.4832505520121231
1281, 0.545536525326952
1282, 11.905939319104618
1283, 16.916588225913074
1284, 0.9482910146884933
1285, -11.241656519618573
1286, -12.345930722314733
1287, 1.5224086288985745
1288, 24.8151211193408
1289, 49.505624505559354
1290, 59.91703763040596
1291, 53.59154813729265
1292, 35.251634520605876
1293, 14.177401626410301
1294, -0.3693781708630013
1295, -3.004296507078834
1296, 3.4790506859535526
1297, 9.805745500205376
1298, 11.491165241389808
1299, 7.273372200154881
1300, 6.1476223509084775
1301, 4.341424440889568
1302, -8.637359013850983
1303, -14.721784630778075
1304, -7.629160435082213
1305, -11.145146213134012
1306, -15.462935759837364
1307, 1.6875628144275652
1308, 18.808117810315252
1309, 25.4510064968008
1310, 24.06768032962691
1311, 15.569331343012436
1312, 1.423286509344507
1313, -6.764366335539762
1314, -6.04382100301882
1315, 2.3409913461964607
1316, 8.570060018339973
1317, 3.111285487576424
1318, -2.2231549912348783
1319, -3.4924825292932837
1320, 2.5624034459447103
1321, 5.813583095125523
1322, 0.9466383743988445
1323, 7.602820289449937
1324, 20.675969326052837
1325, 21.111056168445884
1326, 21.634806649411985
1327, 24.433716661725157
1328, 7.323545006049244
1329, -4.973134596761156
1330, 19.766525443493265
1331, 32.45208775040601
1332, 21.28410374508985
1333, 6.0924732199105165
1334, -9.214973754596485
1335, -21.359909973198683
1336, -1.6852536092833361
1337, 35.77118143839198
1338, 39.992787041739575
1339, 31.322615396734818
1340, 22.561366924815502
1341, 14.172984906678266
1342, 5.5241808904143
1343, -3.611812256946905
1344, -10.107762554020155
1345, -10.632677650090045
1346, 3.031461732245589
1347, 21.08454279368243
1348, 31.607666624232934
1349, 22.064283633906598
1350, 4.382432004497787
1351, 8.732789327757928
1352, 19.89374327169844
1353, 27.20945955177058
1354, 24.482429134929134
1355, 13.75478384189455
1356, -0.2205165152531663
1357, -0.02194656861911426
1358, 12.628209581711417
1359, 19.276749375089366
1360, 18.223671499550164
1361, 10.392715311212669
1362, 3.9827123717991526
1363, 2.4710041784110217
1364, 7.501254244482425
1365, 5.297486689397374
1366, -3.2596874079135887
1367, -0.417542829683498
1368, 5.179181698026241
1369, 5.931546786101535
1370, 2.9936629529493075
1371, -0.4951143954158397
1372, -0.37354653789952863
1373, 6.042761331641486
1374, 15.087728487696495
1375, 10.699696697710351
1376, 2.6458444204445186
1377, 0.037828512652595236
1378, 1.1633933888892898
1379, 2.9856378804583983
1380, 0.8061143423310568
1381, -4.905190720475275
1382, -9.804287364294396
1383, 1.0358956564055006
1384, 12.382202106691693
1385, 13.05802552330897
1386, 24.09906602103183
1387, 37.24853553642606
1388, 35.96264018923648
1389, 33.83873266290266
1390, 33.561710947850315
1391, 27.700367640439254
1392, 26.072267551718596
1393, 31.910797180695226
1394, 21.557803240164503
1395, 3.5177456840303876
1396, -4.712285049172351
1397, -3.093526445862153
1398, 7.852208116521751
1399, 26.4654126630287
1400, 29.37123040259621
1401, 9.788454938277937
1402, -3.744417039381233
1403, -6.298248630504077
1404, 3.357250143077863
1405, 12.12755299751052
1406, 16.97317073877116
1407, 19.297791607907584
1408, 20.846773979571935
1409, 23.343706193647222
1410, 30.010306535300515
1411, 23.313481321807785
1412, -1.691638372287116
1413, 3.155955599116396
1414, 22.20585587989467
1415, 23.93184786585175
1416, 16.575727971323886
1417, 5.377924334193267
1418, -2.4242459878137197
1419, 5.9947306524604755
1420, 27.648680859533442
1421, 24.044480620591685
1422, 9.315936321747131
1423, 0.9340645755110017
1424, 13.209096862662136
1425, 36.47153091449218
1426, 50.16350530967338
1427, 45.318524192127825
1428, 29.211996332315948
1429, 23.206239773403013
1430, 21.57457906337868
1431, 17.299272088648422
1432, -3.307089702786925
1433, -11.878473301088889
1434, 6.929422151521749
1435, 25.62783153505393
1436, 31.24086659320369
1437, 16.13467843223384
1438, -5.883581738041585
1439, -18.540895159819684
1440, -0.5684076168297452
1441, 17.76438770493337
1442, 23.00609730649694
1443, 11.606939710566166
1444, 1.2952158504469935
1445, -0.542254446229208
1446, -4.3722943048569505
1447, -5.9471602783251
1448, 0.1859458209812601
1449, 20.44152123136746
1450, 38.02250035680436
1451, 32.68513950154238
1452, 19.9576108166234
1453, 8.267701015505736
1454, 6.743276331770858
1455, 18.60464758650278
1456, 31.435150338465974
1457, 14.14399982156965
1458, 1.968916750014614
1459, 7.405833942073059
1460, 10.948934395824608
1461, 6.50290932467351
1462, -6.1809242348927
1463, -20.759097355359017
1464, -14.256654200843059
1465, 26.71350521678096
1466, 39.93575706103934
1467, 27.565454975103876
1468, 8.939326686280538
1469, -5.511068401657667
1470, -3.66029447495157
1471, 30.49738121732298
1472, 43.18994948869863
1473, 29.795792597307127
1474, 21.019105623931637
1475, 18.57822658255236
1476, 19.406061520056483
1477, 14.109671740671274
1478, 11.526693309897382
1479, 16.118881139699624
1480, 27.85232672924758
1481, 34.41298847038502
1482, 27.393923899781612
1483, 7.543771146409881
1484, -2.771981728004448
1485, 9.888201069460592
1486, 22.436849051376157
1487, 18.964079772408923
1488, -7.07130756149445
1489, -16.66257772768199
1490, -7.9362635836646405
1491, 11.024479352723347
1492, 22.88917649137875
1493, 25.0908281967354
1494, 23.543820952786746
1495, 27.465543704023048
1496, 30.26848400217159
1497, 15.71969595721066
1498, -0.701232259494418
1499, -8.539917753374993
1500, 1.893084463803234
1501, 18.36510702021451
1502, 28.610274937697113
1503, 16.856474253349006
1504, 5.975632983218929
1505, 6.792341243255805
1506, 18.66182073712639
1507, 23.87504594751431
1508, 15.964163023153333
1509, 0.9200976394849931
1510, 1.6409800305989393
1511, 18.48121028058722
1512, 12.559326239070742
1513, -5.770549986517835
1514, -21.86214321169291
1515, -10.904498541234261
1516, 13.253873757783822
1517, 33.71240287793921
1518, 23.09489221980084
1519, 5.779925192056226
1520, -0.7766700976053471
1521, -0.7783092390525326
1522, 1.5371906998104805
1523, 3.8146262297727844
1524, 6.579090512202129
1525, 19.153433710535637
1526, 37.489973849294984
1527, 20.73773700155175
1528, 5.562783376968582
1529, 16.748505731768773
1530, 33.683620918334555
1531, 41.787963789143305
1532, 36.67143554777931
1533, 31.02405741355733
1534, 22.18478695975091
1535, 8.41505865139925
1536, -4.925467729885895
1537, -22.19451014331412
1538, -32.12034156622008
1539, 24.241576377964066
1540, 70.82634686124106
1541, 61.24071062649659
1542, 28.933469740472447
1543, -9.718135673321285
1544, -33.25872412752096
1545, 4.9782496398438525
1546, 27.79159905428378
1547, 6.113751528188004
1548, 4.516132268345245
1549, 9.102264621596532
1550, 16.27674403778201
1551, 40.58672520339633
1552, 42.30196868996359
1553, 18.293218494174198
1554, 10.272537586436783
1555, -8.409871305042543
1556, -35.198150228254235
1557, -32.83690564876679
1558, -8.77899902259287
1559, 21.373993294367438
1560, 27.962194839499034
1561, 4.7361998116161885
1562, -21.86094688928597
1563, -7.567778909912477
1564, 20.075229858379544
1565, 31.99330224977757
1566, -1.5776525587984906
1567, -10.691470013649678
1568, 15.769351421485908
1569, 69.62268797596016
1570, 119.23453633115355
1571, 153.37274935583127
1572, 179.99078764362207
1573, 226.89390022079306
1574, 270.5019124310925
1575, 292.3413454948752
1576, 311.191518016544
1577, 350.52237894828
1578, 408.3504015105093
1579, 429.9923462285092
1580, 416.76349494608917
1581, 384.03286692756114
1582, 364.7938316716295
1583, 348.19343232747747
1584, 316.61979285913685
1585, 246.17784606923965
1586, 171.4908238832404
1587, 111.9284335566324
1588, 89.26148906474373
1589, 75.09126761876769
1590, 48.254514405771715
1591, 10.655704674679328
1592, -14.00373157482386
1593, -24.96244889357058
1594, -26.00817818864357
1595, -23.259350151682384
1596, -18.615545745331474
1597, -14.016777067818339
1598, -13.592348411334797
1599, -11.54970587761568
1600, -8.010269726088382
1601, -8.458200918356624
1602, 9.386180117073764
1603, 29.02376398046772
1604, 13.545044420071235
1605, 2.357636044452647
1606, -0.3284131104342123
1607, -2.0080576911684602
1608, -8.885211179060434
1609, -13.25978468493372
1610, -11.195166542461948
1611, -12.290849922057987
1612, 0.42249698797127166
1613, 18.264035783187865
1614, -3.1431646453897883
1615, 7.8100528541117455
1616, 40.523582182285054
1617, 33.075640877239266
1618, 10.456950043675079
1619, -7.189463199890042
1620, -6.258963876229927
1621, 18.18089828879556
1622, 36.609503172604036
1623, 29.573052946649796
1624, 4.242471191118739
1625, 5.039942244444319
1626, 24.103945242074815
1627, 8.069574964933736
1628, -1.5324839086156317
1629, 2.7689627369043137
1630, 16.84784282209489
1631, 39.57335593581729
1632, 37.81228652664254
1633, 2.350721177900141
1634, -9.126501942304458
1635, -5.224813502841698
1636, 1.9882427504019233
1637, 0.344302365160047
1638, 5.526325090227147
1639, 10.949063866605911
1640, 4.444516583098448
1641, -0.19822788219585163
1642, -4.596768383156814
1643, -4.155952747079027
1644, 23.38612315563546
1645, 25.62729119222672
1646, 0.3756452139466546
1647, -11.706822537645849
1648, -6.342218226949399
1649, 4.096149206636483
1650, 3.117340783595637
##END=



