##NAMES=
##LOCALITY=
##RRUFFID=
##CHEMISTRY=
320, 10.166874720451233
321, 17.069576655096625
322, 18.80673351635869
323, 10.689330750548379
324, -1.8105745855609712
325, -9.2682245066635
326, -12.18231655578029
327, -10.57611373783584
328, -4.8069394868653035
329, 0.42193794416971286
330, 4.261387324977932
331, 5.084288118117911
332, 1.8694364080142805
333, 2.034784926305292
334, 15.391335459547008
335, 35.38758108642742
336, 44.44046498175612
337, 41.87278884768875
338, 29.78492554810782
339, 9.320089280952288
340, -3.698334106285074
341, -4.903010806801376
342, 1.870388671881301
343, 14.243983172572825
344, 28.892152544080545
345, 35.940527724512776
346, 36.6980222588154
347, 37.01851196332109
348, 37.98046803026136
349, 44.13772662271094
350, 56.17815551248077
351, 57.27747615045564
352, 38.76697604711171
353, 13.101170840493523
354, -4.307358865853075
355, -12.373487962799118
356, -5.15415275002033
357, 15.361197345451728
358, 36.02018860760245
359, 52.26576420520951
360, 52.331021078088725
361, 32.82915728114267
362, 11.43514796230329
363, 0.3979471803154411
364, -2.5630506856255124
365, 0.6450427417689752
366, 6.144893920559298
367, 2.786152126093384
368, -7.484739586149772
369, -8.233722322398535
370, 2.5009173807102343
371, 13.151013232053174
372, 19.14330838094611
373, 22.431529495395807
374, 24.362275764677634
375, 24.80917225082385
376, 23.586379271974238
377, 22.40871923326631
378, 26.29964593456998
379, 33.06561477566265
380, 27.48723349192869
381, 8.148965619423052
382, -6.1842369693918045
383, -10.788635631509806
384, -9.173606705180191
385, -3.2405459103360954
386, 5.603216491229432
387, 15.414219305219376
388, 22.5101824262033
389, 18.33749260650893
390, 5.002555046225552
391, -2.666594926628477
392, -3.8708966155804774
393, -6.936615704270025
394, -14.600175577815662
395, -19.803816802599158
396, -18.402494519519223
397, -12.79425581950818
398, -5.487762553500943
399, 2.034643792857878
400, 5.35974337640846
401, 4.501208253382629
402, 1.3878631083912296
403, -3.8915032357008386
404, -14.596176480334634
405, -31.803261171148733
406, -36.03005034090256
407, -17.663810070939235
408, 6.657796811225126
409, 22.54604459431448
410, 37.34757091494703
411, 62.81449155757946
412, 98.18089501451868
413, 125.55988508606788
414, 145.95865849907386
415, 171.76300793188693
416, 203.66139222313996
417, 218.29721876824897
418, 208.13330089349984
419, 202.68113580210593
420, 220.28964974136943
421, 245.2912258780816
422, 258.85026756187654
423, 261.8210710477515
424, 256.18809753842925
425, 241.6958115943853
426, 217.02013612024984
427, 184.5671516533721
428, 164.54848458678316
429, 159.9762624699797
430, 143.93743603055736
431, 106.02017611301017
432, 63.529213662487564
433, 34.981011352402675
434, 19.291843785602396
435, 17.240415688357643
436, 22.95581651937391
437, 23.52946703600537
438, 16.38870011441213
439, 2.7917929452842145
440, -14.919606776467845
441, -22.929202258889745
442, -19.036901605824823
443, -11.015519432878136
444, -1.27728307102916
445, 5.937407637487013
446, 7.812018610305131
447, 11.101800089740209
448, 24.32713946601416
449, 40.63815365388018
450, 47.44446940959824
451, 45.14990023615246
452, 36.93653288615678
453, 24.23393308131108
454, 14.740096080986405
455, 11.430650095124292
456, 14.645376603104523
457, 24.7264603889289
458, 29.94997550342532
459, 24.559271200473177
460, 14.863623330014434
461, 7.071470251942628
462, 5.030301148064154
463, 13.954221680827231
464, 26.45773165898163
465, 22.389814422363997
466, 4.02938770909077
467, -10.76881949853805
468, -21.267183216907597
469, -29.714236841022284
470, -36.679849525816735
471, -30.863833685266854
472, -7.115451900099288
473, 11.657420956728402
474, 9.38558889616661
475, 0.08076122795000629
476, -0.1712491725561449
477, 6.059444101467761
478, 14.47784957149679
479, 20.828830012985236
480, 14.119036451191732
481, -2.864778085601756
482, -11.888681318329418
483, -11.411883016339289
484, -3.238115279356407
485, 12.92158297774813
486, 37.09689118419374
487, 67.05644766024307
488, 77.49231585769712
489, 52.31434808647009
490, 20.8901835765123
491, 16.43101979919311
492, 24.828137372765468
493, 20.71870842834187
494, 6.516776086609752
495, -9.351859071573017
496, -24.817902409841736
497, -27.425940289744176
498, -17.23592990792804
499, -3.6673126887053513
500, 11.6859928147569
501, 17.272970623136644
502, 9.501355970185159
503, -3.0636526183925525
504, -17.834107568081436
505, -18.40524261063001
506, 9.07570810592415
507, 44.50383118647278
508, 58.08036633426764
509, 57.03096218442033
510, 55.761430169151026
511, 56.825200899375886
512, 72.42194718497194
513, 94.36225282286978
514, 108.98590915582008
515, 115.3560398747677
516, 119.36853639796391
517, 122.51732021950284
518, 128.60981853334306
519, 138.84179868027059
520, 152.86333286383342
521, 170.40181550090801
522, 175.37389990369775
523, 156.22991858960177
524, 133.54673226334853
525, 130.40940473160754
526, 137.97768401103167
527, 141.13016445965422
528, 136.75092014037637
529, 117.62008141389379
530, 86.1065358835267
531, 52.34756093404576
532, 25.012164608488092
533, 15.332251541155529
534, 22.641850634669026
535, 30.647101845887846
536, 32.84036923795429
537, 26.439384951779175
538, 10.878991020264948
539, 2.5928475507325857
540, 8.47412015104328
541, 18.361070300150004
542, 23.465840308458155
543, 23.12833718098591
544, 16.61690174879277
545, 9.310931371980587
546, 10.886327017158237
547, 19.038102100296783
548, 26.683917004863815
549, 31.25091648368152
550, 25.074853382629044
551, 11.210492932532361
552, 8.042462951479138
553, 17.481833683764307
554, 40.54292811517371
555, 72.70175744650624
556, 83.10718033240755
557, 64.25734660634544
558, 36.59780360530249
559, 8.272809595614945
560, -9.89961527603191
561, -14.394578711194754
562, -10.61262759664396
563, -1.8961059604152979
564, 3.2283498022602544
565, -4.864528142385552
566, -12.80857869979036
567, 0.144013861532585
568, 23.886854577326176
569, 34.1500136202726
570, 31.038791078072336
571, 16.997640651303755
572, -3.7286636801613895
573, -15.691910811191974
574, -18.669200150581673
575, -13.76057639442297
576, -2.3572683611346292
577, 3.236008715016851
578, 1.5570143445324902
579, 1.2684680917391233
580, 4.826116537196867
581, 12.3249493055514
582, 22.926366686792335
583, 27.321433973825606
584, 20.906868453591414
585, 10.317423033849991
586, -0.021915310609983862
587, -6.467051843936133
588, -6.391175147665763
589, -3.860904232242774
590, -3.600897322585297
591, -3.702476037215092
592, -1.1046098850670205
593, 5.224348203309546
594, 17.459027336132294
595, 32.99559517613034
596, 46.00583310066122
597, 53.56574578130403
598, 46.50446541222891
599, 27.318249051426392
600, 11.21417216034979
601, 1.0745337897305944
602, -4.947147520383169
603, -7.732517609493243
604, -8.695140662390259
605, -8.338564786428833
606, -8.421774876067047
607, -9.07294482244697
608, -3.6530827534766104
609, 10.259018391920563
610, 17.9028330973415
611, 12.574295809298292
612, 3.0643389206534266
613, -5.261007770609922
614, -5.597502584790618
615, 7.492244596666751
616, 25.866205855306816
617, 40.171954908649695
618, 44.370318260548174
619, 31.437941360200966
620, 14.313478726353878
621, 13.31283308369484
622, 21.759389818042564
623, 26.178727516511117
624, 23.36743776936237
625, 6.802238327527903
626, -15.01907927570619
627, -22.653465581440287
628, -16.122551023773667
629, 3.7794671423357613
630, 32.986217111429596
631, 47.50587817306268
632, 46.226036319282684
633, 35.55208588741607
634, 19.15416015008759
635, 15.733161118133921
636, 25.70077364711051
637, 32.590804175931225
638, 32.80367067115594
639, 20.87651766068211
640, -1.798104654718827
641, -3.000633289587313
642, 24.340823018687388
643, 45.71612697518549
644, 49.32308698349834
645, 38.515642685081275
646, 15.117032864491648
647, -4.916807948276073
648, -16.61959795153325
649, -13.739707679113053
650, 7.830401942799654
651, 27.38422272701837
652, 29.546000268804164
653, 26.78689863616046
654, 28.415520145865685
655, 34.0611551390225
656, 43.40099814403993
657, 44.55736498957185
658, 25.427927674893
659, 3.170483076691198
660, -1.5688950701314752
661, 8.635700880444347
662, 31.897459201378297
663, 54.26945087970171
664, 55.455233631168994
665, 38.162326906745875
666, 7.562997948286011
667, -19.578796395904646
668, -14.516875789639471
669, 10.655745299698083
670, 28.680022723842285
671, 35.316970897801184
672, 25.40451663516842
673, 5.6685156280996125
674, -4.251385691237829
675, -3.3035136970524945
676, 11.502011713103457
677, 33.896005870463796
678, 36.175343725929
679, 20.334882944859146
680, 1.5390194054816675
681, -14.728598082234384
682, -14.285323233303643
683, 0.3825976054340572
684, 12.25250827444279
685, 20.40131305021896
686, 23.96702616452376
687, 24.478450557227916
688, 29.692919458302185
689, 38.65651527874297
690, 39.564652209554424
691, 31.301008665282552
692, 18.469221685089906
693, 3.788581708890433
694, 0.49795223821683976
695, 9.12536194118411
696, 19.684531235651775
697, 27.70336729497012
698, 22.248131204285528
699, 3.487712867588016
700, -7.892956137464353
701, -8.193597080083691
702, 5.374527155007399
703, 31.382856836507926
704, 37.022201215169844
705, 17.32829153528428
706, 1.600701994501378
707, -2.8168633135396703
708, 0.28988279999157385
709, 9.989164235448243
710, 23.375020219776616
711, 36.67904500987379
712, 30.413945843165493
713, 2.392780615722131
714, -7.532964872204502
715, 9.177108722988123
716, 30.014882270739236
717, 45.97638109155514
718, 45.56228242344605
719, 26.80778191237323
720, 9.03724854657139
721, -0.951035538398628
722, -4.272989988186509
723, -1.7458603263121404
724, 0.9950406356051644
725, 2.258600577190009
726, 0.2962797147592937
727, -4.980675989568681
728, -5.112950126559099
729, 1.6921767701169301
730, 3.6313768823565624
731, -2.4880503422891707
732, -6.781329600696608
733, -6.524284471635838
734, -0.6217461405417453
735, 10.903442575344343
736, 16.934317052136066
737, 14.495428812225782
738, 6.94471619430351
739, -3.8423250054538585
740, -8.072952733567035
741, -3.7456267580787426
742, 5.374440823228724
743, 17.33284035402221
744, 14.102929218581266
745, -5.623110914490098
746, -11.817699080082548
747, 0.5366915613844867
748, 15.153195457934544
749, 27.297670230349468
750, 32.57620115748159
751, 29.909331560395913
752, 18.602112177904473
753, 2.041773715066938
754, 6.309138538483239
755, 31.419531008864396
756, 38.605656114180874
757, 24.172948961311704
758, 10.003092488175753
759, 2.44317893159905
760, 9.58377194681998
761, 29.49010802978728
762, 39.310197792008694
763, 35.61478248143612
764, 17.51705644078993
765, -8.715667293543902
766, -15.044998210407357
767, -1.9140945706590173
768, 18.16844447686026
769, 38.265006077745966
770, 37.12403778764383
771, 20.119144106596195
772, 12.817109664421878
773, 16.122019576358525
774, 20.839385481822774
775, 22.530741395004043
776, 10.24755500125093
777, -6.584759648176259
778, -6.485067692816301
779, 7.822305815931486
780, 28.832561447034095
781, 47.31805207549587
782, 46.62936442111322
783, 29.760854553648187
784, 3.1243916210241878
785, -16.99537396867254
786, -6.878080957210841
787, 16.6472607616588
788, 28.214245972191293
789, 27.158340282512654
790, 12.899991628839416
791, 0.6117714899933162
792, 4.072017950598365
793, 17.17074798676822
794, 33.4760662948579
795, 39.613661940060865
796, 25.126018389280944
797, 7.749778859007165
798, 0.35129067997559105
799, 1.985355876356607
800, 12.36888582434949
801, 19.32726444115815
802, 17.062748428810664
803, 11.452303656879849
804, 6.757897461598986
805, 12.827289558456869
806, 32.706703378779366
807, 46.73538242791392
808, 49.08331749061017
809, 39.09257804756908
810, 18.848840210391245
811, 6.890437082035987
812, 6.4262500925756285
813, 6.987830514899088
814, 6.217981533375223
815, 1.3031466066267967
816, -5.508599875701748
817, -1.112591211614017
818, 13.010888213189446
819, 24.202493701992807
820, 29.21635931628407
821, 21.821972458627442
822, 5.902927759124395
823, -7.404500553962407
824, -14.622014942141504
825, -7.750424892172305
826, 2.6293334287847756
827, -1.3902100037275886
828, -9.769202686927201
829, -9.121756502201151
830, -4.181241075971684
831, 0.42557339260611116
832, 5.780250190597599
833, 12.276348933130976
834, 12.685530046090662
835, 2.680401818668088
836, -0.7411083358597352
837, 10.012373215573461
838, 16.150662970629583
839, 10.580761682231241
840, 5.037537354805863
841, 4.030316923849568
842, 8.492390608146252
843, 18.37269033981238
844, 27.09912594624393
845, 33.31462910026903
846, 35.95485007192838
847, 35.565910171943415
848, 35.17560910579368
849, 35.04628795480994
850, 34.91298177585759
851, 32.2875354447242
852, 20.8611673084024
853, 4.470131652818054
854, -8.213374503579871
855, -12.873047261874945
856, -1.8192950578713862
857, 12.829085902931638
858, 16.016220787470957
859, 13.008958266405443
860, 8.274120291119289
861, 2.3894441513366473
862, -3.719945068201014
863, -0.4523579587162203
864, 15.735036803398089
865, 16.137728095126477
866, -6.0961014422723565
867, -13.263537051976527
868, 0.9075309164604732
869, 12.924279377219136
870, 19.152069155635672
871, 27.022733868933756
872, 32.9875979492067
873, 19.71489608171032
874, -3.099603330681475
875, -4.219143497465666
876, 8.0415793072616
877, 14.252497727485661
878, 14.244556799616475
879, 9.905827716515887
880, 11.449171717725221
881, 28.810431427515596
882, 39.85672621394269
883, 29.127152685749024
884, 13.22945369987383
885, 2.35596589462466
886, -7.317047589239792
887, -15.875945252874317
888, -1.7905416713888371
889, 36.099172259700026
890, 50.13143055560886
891, 37.734603091074405
892, 33.09574443479141
893, 36.352563937674404
894, 32.19442841091859
895, 23.305831817026956
896, 19.360530632568043
897, 15.603302150273066
898, 3.078576160072771
899, -4.7097552042987445
900, 7.326746275051846
901, 18.349960094463313
902, 10.302522608102208
903, -0.3886206282995772
904, -4.790907490593781
905, -4.999149511065298
906, -1.817316633000246
907, 3.537396488486138
908, 9.199179389092023
909, 2.0116122435629222
910, -14.018490583317543
911, -14.76915496426136
912, -1.739203721724607
913, 14.005915590737459
914, 25.646695931495287
915, 20.94944161105377
916, 8.822619131545252
917, 2.372266953524104
918, 3.4795878150812314
919, 14.194301443415043
920, 26.559808453630012
921, 33.9435785285832
922, 34.351112434866536
923, 28.608459944513015
924, 32.25322102809196
925, 45.522475252768345
926, 46.7075204287039
927, 36.00397486947986
928, 27.391706369144686
929, 28.534289669360987
930, 48.439297979723506
931, 71.50052950747568
932, 76.2002585397986
933, 62.68854272776434
934, 31.636945004211157
935, 1.1938238549864764
936, -16.48820839544487
937, -18.80302457560356
938, -6.103427875806574
939, 1.135491835702851
940, -0.5700671666963899
941, -0.3663470358610539
942, 5.000129652684791
943, 21.1778550365525
944, 39.4801149584664
945, 38.68064331881487
946, 25.54974775773144
947, 12.156256680440492
948, 4.898775374272645
949, 7.743983976584332
950, 14.636776811174968
951, 20.675230917051067
952, 18.36802607208756
953, 7.006486517751
954, 5.180865993056159
955, 15.295280005827408
956, 30.73432924513736
957, 44.8332406214995
958, 45.19048975677788
959, 36.76429645553662
960, 30.498864477751795
961, 29.144965176172263
962, 35.41636929756805
963, 34.94353077123105
964, 18.713922012255352
965, 0.7316977770237827
966, -12.563077937360504
967, -16.67623809723682
968, -12.128303020156181
969, -6.67245387628509
970, -3.0066370658964843
971, -7.151614191001045
972, -12.59141826592304
973, -5.967791880098048
974, 5.95693075760073
975, 15.116669166156953
976, 14.822005568410077
977, 1.8793252091145405
978, -3.9240151807739494
979, 2.9868989538781534
980, 12.675488471584686
981, 20.0161455471698
982, 13.9764659189359
983, -0.10187860311452823
984, -4.624985637332884
985, -0.413169851956809
986, 10.921683146016221
987, 19.01581221477636
988, 15.145819916102937
989, 8.275224697633803
990, 4.531656722811931
991, 13.668476276822275
992, 35.73690745163958
993, 47.46426013763312
994, 47.47896859377306
995, 42.675457898586956
996, 37.97531909885447
997, 41.56320491909037
998, 43.171671448042616
999, 32.11804081023365
1000, 13.97790692999024
1001, -5.740754609691066
1002, -15.560168870430516
1003, -13.581003108977256
1004, -8.9399334817208
1005, -3.789079614540242
1006, -0.919911524276813
1007, 1.0203354749633036
1008, 4.827473282302435
1009, 9.835901889661272
1010, 14.315224542089709
1011, 14.361261635651317
1012, 8.273887669258329
1013, 3.5542176556100458
1014, 3.5521463739610226
1015, 18.64959165697337
1016, 40.37321984259552
1017, 37.32716255602918
1018, 19.456331526072518
1019, 8.358266122138048
1020, 6.037010247783655
1021, 12.892265956847496
1022, 27.293872683951577
1023, 44.91267602611197
1024, 45.86906072675356
1025, 29.951672790803514
1026, 21.797211828024047
1027, 26.443981362002887
1028, 40.63095253346182
1029, 47.48176588345086
1030, 23.99470368776747
1031, 0.4738955562420415
1032, -2.774402054289567
1033, -2.2370198697904016
1034, -2.699392480393726
1035, 3.7267190899201523
1036, 12.59450329655192
1037, 0.670813447200544
1038, -14.743238986248798
1039, -0.1706515170617422
1040, 17.791591410330057
1041, 13.375059088332819
1042, 3.1500570998809962
1043, -4.733085239331103
1044, -10.111220122897066
1045, -12.371230616098273
1046, -7.836412675202155
1047, -0.9335785551620575
1048, -2.5783445382685386
1049, -7.563186370855419
1050, -9.855793865800024
1051, -1.169910165618603
1052, 20.67588073857678
1053, 20.17702102738849
1054, -4.906087691614175
1055, -19.384829724814153
1056, -22.028179613513657
1057, -17.609845211875836
1058, -8.339889008273985
1059, 3.453761637192656
1060, 0.7359114581186077
1061, -23.305639314251493
1062, -29.192718340474585
1063, -12.131694647939185
1064, -1.0734384540919564
1065, 4.455638016508146
1066, 12.83904271717347
1067, 32.153319504761384
1068, 72.09738390071061
1069, 131.79870013974323
1070, 198.1709885069513
1071, 237.7173459145606
1072, 249.19833888423364
1073, 265.4810041910464
1074, 289.28177326284094
1075, 318.3019053213243
1076, 339.8188330295552
1077, 341.4325703827785
1078, 325.94856938000794
1079, 296.5030603698465
1080, 268.22290281933874
1081, 240.93083672177727
1082, 201.93945787108032
1083, 151.59036243685023
1084, 92.50605738537615
1085, 51.865867760769106
1086, 38.26920823596629
1087, 29.531373715947666
1088, 18.217431726522136
1089, 9.539485024109126
1090, 0.8851785626711717
1091, -16.237142178054
1092, -29.861683511068804
1093, -23.790392713943675
1094, -15.695477016242876
1095, -13.32070158377428
1096, 1.0567261709711602
1097, 25.736443677675652
1098, 29.14301700478154
1099, 13.796784145061793
1100, -9.155626213166215
1101, -24.915479094927832
1102, -22.660524685292785
1103, -7.576451040557913
1104, 15.472628907391027
1105, 21.48246268143339
1106, 9.969937493297039
1107, -9.315677548691838
1108, -20.357854510075867
1109, -5.713441936110485
1110, 14.726801358540797
1111, 29.62111736986617
1112, 28.7429961129983
1113, 14.335418310592559
1114, 1.7458488358383875
1115, -4.910207483370868
1116, -2.3418903598289944
1117, 0.6322514163693995
1118, -1.2428848525319154
1119, -5.746937530277137
1120, -8.96132452664824
1121, 4.206707149652175
1122, 21.498338887578484
1123, 14.486614507836293
1124, -0.26321184231801453
1125, -9.526507846945151
1126, -10.836290672379164
1127, -3.569526393859178
1128, 11.212747182243675
1129, 23.057049385882692
1130, 9.902570430693231
1131, -2.125401557897476
1132, 8.462904251255168
1133, 19.99033793436547
1134, 24.01754634409326
1135, 24.276372223458566
1136, 19.700317588933103
1137, 6.676693077700293
1138, 3.5334092106973003
1139, 24.243393848063533
1140, 32.17163736722796
1141, 18.630534880287996
1142, 11.469397722515623
1143, 12.609476671349967
1144, 13.071906321181359
1145, 11.708896262399776
1146, 8.073179413560865
1147, 8.801307169151187
1148, 14.83766905362154
1149, 18.466065824602083
1150, 18.111684144812443
1151, 12.53354769996713
1152, 1.9975215133295023
1153, -11.895929682267251
1154, -12.705605451124939
1155, 0.938371768036177
1156, 8.186131500841839
1157, 9.386467968579382
1158, 10.940865709401805
1159, 12.145046767042459
1160, 12.73511709782224
1161, 17.335563484013164
1162, 22.27603333552497
1163, 7.1655538040613465
1164, -11.977700951376846
1165, -8.859767210459268
1166, 5.680964464525459
1167, 25.12529309007823
1168, 40.15907533450263
1169, 45.40930353187878
1170, 30.346232087447788
1171, 8.412934727240554
1172, -1.4254434693089024
1173, -4.1231908808240405
1174, -2.1833729177606074
1175, 2.5515423514489157
1176, 11.38402787886389
1177, 28.16782499303008
1178, 44.17122874157894
1179, 51.47557181697175
1180, 37.67566214684393
1181, 6.473238586087518
1182, -4.0553251823967
1183, 2.7184163628630813
1184, 14.838067144643901
1185, 17.198826277321132
1186, 2.5802104582435277
1187, -9.166785075698499
1188, -11.83820309186467
1189, 2.396434770598262
1190, 26.539534939285204
1191, 48.9935759447153
1192, 52.48583550490457
1193, 35.23700494554623
1194, 27.990470482386172
1195, 27.09155793021273
1196, 15.568300690158594
1197, 1.0926293041225108
1198, -11.971971234085686
1199, -13.596370748357003
1200, -2.3543730868623243
1201, 18.10736591359273
1202, 38.255225026029166
1203, 42.99613355910333
1204, 42.16906201239317
1205, 41.76713631994107
1206, 51.351469944946075
1207, 62.13551290308533
1208, 54.34494470618847
1209, 36.04370025257185
1210, 15.322929955447307
1211, 15.652440652869245
1212, 32.62706998009162
1213, 36.11808793398586
1214, 24.333500309490773
1215, -1.240606199220565
1216, -16.448735254741223
1217, -13.6459231150925
1218, 9.32126249769999
1219, 39.636252235198754
1220, 52.91428067352763
1221, 59.498246308278794
1222, 63.39754741525712
1223, 55.282135009957074
1224, 34.61470340476262
1225, 3.9627228392996585
1226, -17.878558051311302
1227, -20.178324466588947
1228, -5.5136373789300706
1229, 17.70676980374401
1230, 22.69232797397035
1231, 13.228025592697122
1232, -3.8892543229608236
1233, -10.1089762265824
1234, -4.8255250171541775
1235, -7.394033655949897
1236, -12.563085048947414
1237, -10.882794308659868
1238, -2.242645254713807
1239, 14.862316150852166
1240, 45.57329501401546
1241, 69.84827194476156
1242, 56.252050847328064
1243, 32.374227029135
1244, 13.427714859264597
1245, 2.0688581442805116
1246, 0.7608035963912698
1247, 16.097916157762484
1248, 33.639392741093616
1249, 42.619402709175574
1250, 52.990360894275
1251, 62.1004595960012
1252, 58.480242806057504
1253, 51.500629569220564
1254, 49.15711991215767
1255, 61.48740651317803
1256, 80.64392699605924
1257, 95.1019390094707
1258, 97.57042892399613
1259, 84.17850884809013
1260, 75.1830587114232
1261, 75.8055356447403
1262, 84.83716065344379
1263, 89.67268527132865
1264, 79.58847951115331
1265, 68.62366410558616
1266, 60.2480291031452
1267, 52.08954089814506
1268, 44.640536550305114
1269, 38.131170846963414
1270, 26.602191754482647
1271, 17.67106985839291
1272, 33.13212374808381
1273, 46.22705648988949
1274, 30.99943332396697
1275, 10.162371694094873
1276, -4.868183560698071
1277, -4.882151446776788
1278, 4.725684911458302
1279, 17.31105882430711
1280, 16.02107846613626
1281, 2.5795454767089723
1282, -0.9790124547448613
1283, 7.382605477879224
1284, 27.091430170456533
1285, 31.876683261420112
1286, 19.635644214017248
1287, 6.44470382227837
1288, 0.17728453997551696
1289, 4.1938146918787425
1290, 3.718213200703758
1291, -3.1853472117895762
1292, -11.307837472558276
1293, -15.256657310952505
1294, -11.522437591471771
1295, -5.940751819699017
1296, 0.3130762370096818
1297, 7.214557725067152
1298, 16.13497482118555
1299, 25.888214983717035
1300, 29.632562781266188
1301, 26.201918884217093
1302, 16.262706236369468
1303, 13.67882713684412
1304, 24.512745211807896
1305, 29.273077582447286
1306, 23.457467596756942
1307, 5.073329205933305
1308, -7.012931411030422
1309, -5.65046114464576
1310, 8.93776366190582
1311, 18.059959843012848
1312, -1.4765558608028186
1313, -14.646882135363057
1314, -11.902044970007637
1315, 0.39446579626928724
1316, 13.458809054096037
1317, 17.030174898358382
1318, 0.6364720986650809
1319, -21.516706050079392
1320, -6.954232183205477
1321, 17.560097826732772
1322, 30.657474679442885
1323, 30.051693101776664
1324, 19.708112335581745
1325, 8.33256933080088
1326, 3.625290288639917
1327, 5.722443200083717
1328, 1.2260585520627956
1329, -2.349928021397318
1330, 7.379344313573029
1331, 23.45677372009436
1332, 36.96607496181741
1333, 30.24535206472524
1334, 15.828252112452674
1335, 5.912539682791476
1336, 0.044639453143417995
1337, -3.4616262469899084
1338, -6.888392385404359
1339, -12.915201038711302
1340, -19.078325964221676
1341, -2.496958343455617
1342, 23.31175156536642
1343, 32.023108600850264
1344, 27.767754831628736
1345, 15.679394711203713
1346, 7.511424278571212
1347, 2.302280799340906
1348, -2.8108758818643764
1349, -8.969069301058653
1350, -11.497895529822927
1351, 0.19311805748156985
1352, 17.567053812690347
1353, 32.349703666269534
1354, 30.103599219621856
1355, 17.279181716261746
1356, 4.61626011261842
1357, 3.724118275528326
1358, 14.18759521425477
1359, 27.295418346625866
1360, 35.58798197148121
1361, 36.10277356734355
1362, 32.55628821716414
1363, 26.885155566284084
1364, 20.767775973622975
1365, 9.127609133147871
1366, -3.5542208094429952
1367, -1.6239344290149802
1368, 13.065628709364546
1369, 36.72929259234479
1370, 48.95717887381852
1371, 45.397391471766014
1372, 25.716352856955382
1373, 7.601522437792028
1374, 1.4870513998507704
1375, 15.513280541101722
1376, 25.578709346888672
1377, 15.368013350308502
1378, 12.747159796884489
1379, 11.856944009382232
1380, -5.624162216395462
1381, -11.31797708486306
1382, -0.6449954251861527
1383, 5.1261078014413215
1384, 11.983085474374775
1385, 22.073564371916518
1386, 14.202706165747713
1387, -2.559531649023029
1388, -7.279748405089322
1389, 0.06423400828430204
1390, 16.141654690303767
1391, 28.31438557704405
1392, 34.43418799533515
1393, 33.91270723187222
1394, 28.553028282001833
1395, 17.711994694177974
1396, 1.119223705075001
1397, -7.310863777616078
1398, -5.8750212309025756
1399, 0.9468269513438372
1400, 9.361870934529634
1401, 15.827667551802733
1402, 10.347217296084636
1403, 9.159242810986143
1404, 26.533398457233034
1405, 34.567307660314555
1406, 34.9772864198369
1407, 42.85580803432754
1408, 40.59108986391561
1409, 26.92648621114995
1410, 23.03362155546506
1411, 14.948682924858076
1412, -1.4827049676327988
1413, 6.9372495647801315
1414, 26.786459454860278
1415, 31.729707745687847
1416, 31.792626879092268
1417, 25.074529331845724
1418, 1.6408181665119628
1419, -9.478599992379031
1420, -0.7472027219541815
1421, 8.630740110331772
1422, 16.362141498131678
1423, 21.2346873951044
1424, 27.876245084709353
1425, 28.938227383469894
1426, 14.964336680795213
1427, 5.863011273640041
1428, 5.3506173305215725
1429, 7.8106159475842105
1430, 21.987043453292017
1431, 41.244046584440866
1432, 31.83658126406067
1433, 14.096623687018564
1434, 3.734633006057493
1435, -4.486987775552052
1436, -10.82577979859252
1437, -12.946446601039952
1438, 1.164508506563834
1439, 24.56719707663933
1440, 36.814396342343116
1441, 40.0050477469465
1442, 32.59546834050775
1443, 8.464980148043196
1444, -6.065326960487255
1445, -1.7966746054698888
1446, 7.689709219151382
1447, 24.97348003177126
1448, 47.09227618539694
1449, 45.65536218428542
1450, 25.633174242776022
1451, 0.6636146324999572
1452, -13.415497294701709
1453, -12.221313880330626
1454, 6.305498443370652
1455, 20.839208313402423
1456, 21.27359863086599
1457, 5.179338409957154
1458, -3.2945604716740036
1459, 3.3446526502480083
1460, 14.091571242516238
1461, 20.822612033929545
1462, 19.158527630381514
1463, 10.271407668444681
1464, 2.3659877071859228
1465, 1.2758042751975154
1466, -6.71103441431228
1467, -16.715699625404795
1468, -18.386715179488192
1469, -6.005417403254796
1470, 17.254861527351522
1471, 39.91810976303532
1472, 35.11892951819323
1473, 12.167787613359451
1474, 12.738686639117077
1475, 19.230774691542138
1476, 21.737013519164293
1477, 19.074073037688777
1478, 5.9754518594897945
1479, -9.716837860554506
1480, 7.23382744334458
1481, 34.385228496833406
1482, 50.0629499822785
1483, 45.23300931630729
1484, 28.454983538490524
1485, 9.886901635638651
1486, 0.757389989110834
1487, 2.0483358097678774
1488, 11.163232850048189
1489, 5.965523858369579
1490, -1.8163153120949573
1491, 5.758369348880933
1492, 10.75005506116554
1493, 13.434265439196906
1494, 20.89021873961292
1495, 14.29375105682152
1496, -1.5301665323638645
1497, -7.7959732534850446
1498, -9.916537695855595
1499, -8.893808315110391
1500, -2.6747006313339625
1501, 6.556401914947628
1502, 16.245045778190388
1503, 20.171952215684314
1504, 24.336450474057756
1505, 26.70730947441666
1506, 14.767745741636645
1507, 7.636133940511854
1508, 11.24685528478517
1509, 11.239128675563506
1510, 9.567529866796121
1511, 5.791973803757173
1512, -5.818686578578763
1513, -8.957216760286201
1514, 2.4739294313042137
1515, 15.150418244089678
1516, 24.504755704595254
1517, 27.629732011502938
1518, 20.628132353629326
1519, 7.014035175992376
1520, -6.04034377694461
1521, -4.206553391302577
1522, 6.143147761135197
1523, 19.697182510142284
1524, 32.667022175678085
1525, 36.273924565010475
1526, 28.339732681592295
1527, 24.656178705306502
1528, 20.940465010236267
1529, 13.801459571160194
1530, 7.0805580609553544
1531, -4.056355932137649
1532, -18.97183235766488
1533, -14.015032604487487
1534, 0.8923123528179531
1535, 14.771377749135809
1536, 14.295171823819828
1537, 12.42941353281617
1538, 17.177013175135244
1539, 21.634723829017503
1540, 21.197519444985574
1541, 13.64993666621308
1542, 0.24671060906143794
1543, -10.679050814298307
1544, -12.861458883221758
1545, 1.2696743941987734
1546, 5.022278607369117
1547, -8.05082691345774
1548, -6.493376500324985
1549, 1.722081963169785
1550, 12.455706445252645
1551, 26.5084223674437
1552, 22.491576627096265
1553, 2.3197589952169437
1554, -1.7550633217740597
1555, 8.903028252906779
1556, 24.849479574939323
1557, 23.711965207274943
1558, 17.76711537997153
1559, 9.847265114508218
1560, -4.176092024331865
1561, -22.02696390739584
1562, -33.71456074542061
1563, -22.166962225371208
1564, 0.4941623238021293
1565, 19.811121892388883
1566, 17.92395530035901
1567, 11.148006140085272
1568, 8.321487613531417
1569, 12.628599189685701
1570, 14.496118242213925
1571, 14.691282096760233
1572, 19.55723728314001
1573, 50.223790141036034
1574, 96.18150761267043
1575, 137.89027106981712
1576, 171.6383444559308
1577, 195.33085337454963
1578, 211.84409372733353
1579, 234.62584447285985
1580, 254.6320491602812
1581, 265.79702783647326
1582, 265.68546249082533
1583, 249.22578281177402
1584, 223.5176599004826
1585, 206.81190502883896
1586, 184.2066802850684
1587, 151.5310725406266
1588, 109.86552080401589
1589, 58.65475757463105
1590, 18.605174884456346
1591, 2.4006910984749084
1592, -1.581257869209594
1593, 0.7579339393309965
1594, 4.007820152035038
1595, -1.8684011988373186
1596, -10.841569273020468
1597, -16.872639321539282
1598, -14.7298175043652
1599, -16.064611265153417
1600, -17.239190738217076
1601, 2.0034079930085227
1602, 17.95644730517529
1603, 23.557217070085244
1604, 21.320104962184587
1605, 4.855156736843583
1606, -7.619899437960839
1607, 1.5039792589261651
1608, 14.906866888326931
1609, 24.1314608949383
1610, 23.061628638622096
1611, 4.8982590023206285
1612, -11.297570524742468
1613, -15.160424901320994
1614, -2.950869878162848
1615, 9.481803973125125
1616, 19.25314378082362
1617, 27.597136998073893
1618, 25.146142076708202
1619, 19.51458490683285
1620, 18.25185948817193
1621, 5.011895813641104
1622, -3.0187519283206257
1623, 1.3933298770223246
1624, 2.656988308325026
1625, 7.297530225416267
1626, 15.006656681009872
1627, 17.097671629676825
1628, 21.188113781914126
1629, 26.354795769629163
1630, 27.989089659394722
1631, 22.873314175457836
1632, 12.917434767838813
1633, 7.558600068821079
1634, 27.42765612006906
1635, 37.270186851947074
1636, 29.158479205677168
1637, 21.561380072999782
1638, -0.6148776143079431
1639, -16.763671233775995
1640, -3.385794788533758
1641, -2.140023896106868
1642, 1.9886978190306763
1643, 15.098818662224176
1644, 4.724173542268545
1645, -1.2428110992761958
1646, -2.4346745547868522
1647, -17.880293588317954
1648, -4.904048866168296
1649, 14.514866112131358
1650, 9.98283857825595
##END=



