##NAMES=
##LOCALITY=
##RRUFFID=
##CHEMISTRY=
320, 38.035377369337766
321, 51.150973405312016
322, 63.036836260773725
323, 74.69968476647182
324, 89.735776053064
325, 114.4581948077448
326, 144.6297433078389
327, 163.46575469861318
328, 170.11925539639424
329, 172.50240474324164
330, 172.69536585465266
331, 174.8489908540264
332, 181.24096458844997
333, 189.2577957551266
334, 195.5920369590972
335, 198.44684023817717
336, 192.90151308306213
337, 179.51989222545853
338, 163.55642511895348
339, 146.46547872367228
340, 138.7312897069396
341, 144.31007894737832
342, 144.8890541895953
343, 125.40006219113138
344, 95.27197357508021
345, 71.96302262920017
346, 53.900027079920164
347, 33.41364914245787
348, 11.613124253944079
349, 7.314608299756856
350, 23.74823863034453
351, 33.71913532187227
352, 23.593040822453077
353, 9.417427253418282
354, 9.361288588310344
355, 16.56302461957739
356, 14.522264983639616
357, 4.787200351079264
358, -1.1805663586587798
359, -2.2798087119281263
360, -3.44673768935354
361, -6.240356970819903
362, -7.802164278995406
363, -6.31717316660297
364, -3.7105668143844923
365, -2.5609060806359594
366, -2.8659984357550456
367, -4.926465911512878
368, -7.783462648982095
369, -4.786987745767874
370, 4.765832335214782
371, 9.926737977479661
372, 6.83228049601712
373, 2.601268316920141
374, 2.14031494562596
375, 3.337342529463058
376, 3.0864514136551406
377, 1.92456211814806
378, 1.5038790120083831
379, 1.9500150245571604
380, 3.378136300253118
381, 5.445258293858842
382, 2.4472078137309836
383, -7.465922255205442
384, -12.284044025233015
385, -3.857206343251164
386, 9.375778489795266
387, 14.670435386123245
388, 13.598193939304565
389, 10.752469761590874
390, 5.999652737394172
391, -2.8604796706549678
392, -15.479679053510608
393, -20.28561445675723
394, -13.909989933870293
395, -3.9830871803505943
396, 5.568268210189672
397, 15.725860462951914
398, 27.527592337998158
399, 44.07586717861841
400, 67.10604280288408
401, 96.82829407552117
402, 133.35227731241457
403, 177.24885405388386
404, 233.9044863584695
405, 304.3966343830007
406, 380.1492787406014
407, 457.0948346600794
408, 526.6989815331526
409, 581.1928618391862
410, 627.0313919199148
411, 675.7324006970034
412, 723.085932308551
413, 754.4288171583194
414, 771.2606834861203
415, 790.6928382323745
416, 814.4011641820366
417, 821.2345369653722
418, 804.3097037403618
419, 786.0343488917983
420, 780.3405662513887
421, 770.3603428097608
422, 735.8149665764472
423, 687.7096569829664
424, 650.5844707096212
425, 620.3000564330164
426, 576.5305561551313
427, 519.8886610485183
428, 472.2612022248545
429, 437.6740932921266
430, 402.33327553973095
431, 360.84749860309967
432, 314.7591507098841
433, 265.152023971415
434, 215.52965199638038
435, 170.54828167543792
436, 131.23668751708738
437, 99.9838963621587
438, 76.49131590318848
439, 59.06932045282474
440, 53.24700015027065
441, 56.85875202504212
442, 64.22471017580483
443, 75.26489406159544
444, 89.87466865509077
445, 99.88814135879875
446, 99.76642842579531
447, 92.43121321073522
448, 81.52644446674049
449, 71.32883991109748
450, 71.15705319871267
451, 79.86771776161459
452, 91.92871386148317
453, 104.86361333826017
454, 105.35021668303625
455, 91.56976085879933
456, 73.80330788417086
457, 55.58277294220488
458, 43.39810208613335
459, 40.89081544630335
460, 39.12009525093208
461, 29.28801962381931
462, 14.603938986996582
463, 0.6059291633373505
464, -11.419220226114248
465, -19.432779615138315
466, -22.903307850727742
467, -16.520226665851624
468, -0.6114843019217915
469, 10.401519542024744
470, 13.060107622806754
471, 14.606886222016783
472, 17.897882123431373
473, 17.8290548722357
474, 11.014172569381117
475, 1.8523600668136169
476, -4.60860823780331
477, -7.626920498427808
478, -5.207339445425077
479, 1.9509999654669627
480, 11.25188115481842
481, 20.260146707800686
482, 17.52578917673327
483, 3.3345915607851566
484, -4.361108375907406
485, -1.642945101586065
486, 10.834117146613153
487, 32.712979481054845
488, 51.392285513562
489, 58.86041070907868
490, 52.64599974267321
491, 30.13007381800162
492, 3.556741094933386
493, -5.47092394722722
494, -2.4797733011628225
495, -0.8577448500259379
496, -1.0292425681727764
497, -2.163890686475952
498, -3.2200967786870933
499, 3.4256165134775074
500, 20.183514401374396
501, 51.23892194522523
502, 99.93608520578528
503, 142.35460168022655
504, 169.247426520531
505, 197.40659668776016
506, 239.89064983356457
507, 294.13236957001027
508, 356.887946494689
509, 426.36960927279415
510, 499.08109232699326
511, 571.4301086169307
512, 632.9121780117503
513, 685.3307586727728
514, 740.3418069774643
515, 798.6031953273482
516, 854.0170420619024
517, 904.0914341877137
518, 931.971222776805
519, 932.5561937209595
520, 913.4697448832426
521, 878.3806747146327
522, 833.5054377342294
523, 783.3081535068213
524, 736.7047833141569
525, 703.6980937609374
526, 673.8579856447454
527, 629.367576926234
528, 576.513174755225
529, 531.9139618924146
530, 494.96123387045736
531, 460.3760022631418
532, 428.659424566466
533, 405.4565128953868
534, 390.48257323476537
535, 373.16828706965407
536, 351.3566256486629
537, 331.0655595009389
538, 314.29174574179115
539, 296.7615163645419
540, 276.34602493673356
541, 259.98355584389583
542, 252.7985735582456
543, 252.39882013638453
544, 256.13267304625833
545, 260.30515688476635
546, 258.91344253815714
547, 251.01637188763607
548, 234.62600230652833
549, 212.36873141147817
550, 193.14653602735825
551, 178.69889737482163
552, 173.944881431039
553, 176.0628362197408
554, 160.8548566559516
555, 125.49391865252255
556, 90.41694435802947
557, 61.26975442067669
558, 37.791949288925025
559, 23.749309215345875
560, 20.977092986304797
561, 30.842421064854534
562, 33.78650419481801
563, 16.685055744010242
564, -1.6824686564850708
565, -1.2341576290482408
566, 10.995477446217137
567, 24.362773627024126
568, 35.7552946078149
569, 38.91584253843848
570, 35.11875575593422
571, 28.529952087495076
572, 19.52501813940762
573, 8.574684392499421
574, -2.7911686628344796
575, -6.929006012921491
576, -4.6723770253570365
577, -7.867126265791285
578, -17.72406718361799
579, -16.722553639874604
580, -0.6933658324805947
581, 9.943444949038167
582, 7.341606401369518
583, 6.8068690257991875
584, 15.897043164252864
585, 22.59269304746249
586, 18.892198294829996
587, 18.4491607164141
588, 33.516932857707616
589, 48.756843019921234
590, 45.42717791545374
591, 34.05124305908748
592, 31.760050908611902
593, 31.0809716488302
594, 15.718407967525764
595, -5.444495944318533
596, -7.216571309977553
597, 4.136549957097486
598, 2.615445181261748
599, -9.275078088816372
600, -10.131680500796847
601, -0.19902687838475686
602, 3.6088505745251496
603, -0.38316158167526737
604, -1.2430520627640362
605, 2.625373640736143
606, 2.6892412782558495
607, -3.023428124464772
608, -6.354169369782085
609, -4.634228703671852
610, 0.9397277645480244
611, 10.167505412824994
612, 15.50907870653782
613, 12.792913375932585
614, 12.640923127378755
615, 22.662466561079782
616, 30.815287648060803
617, 26.13989954854651
618, 17.07403583043424
619, 13.430495296453955
620, 13.086854117880193
621, 12.9277294765011
622, 17.31038899031182
623, 34.13570132165705
624, 55.401082391327236
625, 63.09546138923497
626, 62.277716335686364
627, 68.27899993428355
628, 79.21548154464381
629, 86.18320798419609
630, 88.81103607550494
631, 88.36256593517328
632, 84.86181410620293
633, 77.79407628040644
634, 68.3730037632572
635, 64.22026845892424
636, 65.71764162850741
637, 66.39602639027908
638, 65.2974342585253
639, 65.66719065617644
640, 68.25960706170372
641, 72.63691056609741
642, 78.3152149842249
643, 79.71149854965233
644, 74.92637135966334
645, 64.35787716171762
646, 48.44165531700446
647, 35.6330481976338
648, 29.83777085046495
649, 27.012174243594018
650, 24.886483967595268
651, 19.6769445551231
652, 8.996779305396558
653, 0.23244332986496374
654, -1.0794042860952686
655, 4.727773647576669
656, 17.586616103624237
657, 28.144916734306207
658, 26.873589977314623
659, 16.352245775328356
660, -0.36262769774521075
661, -12.80207015343467
662, -7.9194884887469925
663, 5.362111188428116
664, 13.077029196223975
665, 17.11794725637492
666, 21.11221218003584
667, 22.13880808493559
668, 14.285739750688208
669, 3.0459430524497293
670, 0.9334841153599882
671, 4.308961607845504
672, 2.7508156309418155
673, -1.315040475837577
674, -0.06687906668776122
675, 6.18738710577918
676, 14.766614392905467
677, 21.90562327615362
678, 15.641571323356402
679, 0.8349778570891431
680, -1.0446650801677606
681, 7.4487021257223205
682, 8.909028755588224
683, 6.010884457000429
684, 19.270579860863563
685, 46.14614919779524
686, 65.98005974343914
687, 79.61202443762068
688, 105.64633798446584
689, 141.61764272365144
690, 158.20499327385323
691, 153.74684328307922
692, 146.52559562325223
693, 139.4167272828372
694, 130.73451742910493
695, 120.90436808403001
696, 115.2064708872881
697, 113.26782551791848
698, 104.18749745262858
699, 86.35293013378532
700, 65.34387515596154
701, 42.860850150487295
702, 22.956149288754204
703, 7.1620817169286966
704, 1.6582325121726171
705, 6.570734201988216
706, 15.814935914302623
707, 26.960804631483825
708, 39.10603136537975
709, 52.35828720897871
710, 70.52887070806355
711, 93.66415521656563
712, 110.29632179962437
713, 117.53078116362212
714, 119.57416924008157
715, 118.21363609758191
716, 120.38505504696559
717, 128.1007464587051
718, 140.79492742354796
719, 157.31605118332254
720, 165.0585401765611
721, 160.7334308956115
722, 151.66000971083804
723, 139.88490711945087
724, 122.67036837377282
725, 99.94443683865347
726, 81.89307943984204
727, 71.44937797825287
728, 65.72197900206538
729, 63.581762231473476
730, 61.972283037593115
731, 59.54664444376749
732, 51.10065511916491
733, 36.00205585517824
734, 25.90747819223452
735, 23.569612251832496
736, 20.34664867318952
737, 13.852331479841723
738, 5.686417480902719
739, -2.386170968601391
740, -2.9870412803522868
741, 5.133629338438595
742, 12.110098000825701
743, 14.894517095907986
744, 10.285316629643148
745, -1.2205681331049618
746, -7.145488761261731
747, -5.169254250261702
748, 3.0264289400824964
749, 16.683037045857873
750, 28.806194303415623
751, 37.09162811469241
752, 35.831180530156644
753, 25.722079667899607
754, 20.78128134908161
755, 23.342058760741565
756, 30.13047349246608
757, 39.21142319564092
758, 42.26969846647012
759, 37.848399278378565
760, 25.931455973882294
761, 9.002481993733682
762, 0.4038499728874285
763, 1.9839857717201994
764, 13.049939153597279
765, 30.645030629366147
766, 42.805081401310645
767, 49.056269854728725
768, 53.48768564916736
769, 56.89474755420838
770, 60.597018162714676
771, 62.945828555077696
772, 57.82553033925183
773, 46.21000913998887
774, 32.75444212170555
775, 18.3613769331821
776, 4.63410406403591
777, -5.345483037993517
778, -4.490230005286321
779, 4.351210974295782
780, 14.448271172899695
781, 25.33762826699308
782, 37.58278547797545
783, 49.24959766400025
784, 56.75945817256229
785, 61.41881415349417
786, 65.47661252097532
787, 67.89191210862373
788, 67.12990065502754
789, 64.47533787613679
790, 61.549003709577846
791, 62.88683565625524
792, 73.3832381127379
793, 82.76146913363073
794, 81.51796833627304
795, 72.56435135822585
796, 58.2312000191323
797, 40.80894750946186
798, 22.119079936803928
799, 17.630841316055694
800, 35.783870257060244
801, 53.438538975919755
802, 59.252724465244
803, 61.11074105895614
804, 61.86147156805259
805, 51.53262325146716
806, 27.878959178983678
807, 10.175833792263347
808, 3.6590717984759067
809, 0.2627834105896909
810, -1.6739039591616347
811, 5.133409186312065
812, 19.44292396459514
813, 21.062441244248475
814, 9.406367670487725
815, 1.066512841595113
816, -1.7439472078863218
817, -0.8421073675599473
818, 4.99207435121275
819, 21.06949911220977
820, 40.173811252305995
821, 41.04738808621255
822, 32.69317411102884
823, 40.669524756173814
824, 57.899158525497796
825, 67.75290962462032
826, 73.49477659737386
827, 81.27256946475518
828, 83.40100981921523
829, 69.56176873853701
830, 58.60865444393153
831, 70.40081142378222
832, 87.51396686176099
833, 95.54329732704241
834, 93.24927113993567
835, 80.06102449671152
836, 65.84880155880523
837, 56.248573445798456
838, 62.15479858252888
839, 86.81162714777929
840, 110.8289439326586
841, 128.01988443812888
842, 141.09590605452058
843, 151.41987944358812
844, 163.84040790490008
845, 177.67579328012653
846, 183.6151590232539
847, 180.0013585786137
848, 165.90710451259724
849, 145.80195946077947
850, 134.74997652856132
851, 131.1052603343585
852, 127.63390251376677
853, 124.47789222907136
854, 122.63417170077969
855, 118.6141974243842
856, 107.07167510599265
857, 90.66519390108624
858, 72.51089560187552
859, 56.65451331305371
860, 46.46526170985885
861, 38.56102887801444
862, 30.93554698861817
863, 27.763441993683955
864, 30.144742559325778
865, 22.635075855007017
866, 2.493224541685322
867, 0.6717399748217758
868, 21.181047802304647
869, 33.740129163106985
870, 35.82329889046787
871, 45.59486421177644
872, 58.94476624770732
873, 50.681294792629615
874, 28.673461207177752
875, 21.486439436245064
876, 24.606423477631324
877, 25.31513049288992
878, 25.975189281149824
879, 30.715154050646333
880, 32.265493042247726
881, 22.837304186666643
882, 15.172476368740718
883, 18.56155295205076
884, 18.522028566953395
885, 7.893806227763662
886, 0.6837734837736207
887, 1.5671153354205671
888, 0.3530664569250348
889, -4.404153468838786
890, -1.6769405441320941
891, 8.424528954179777
892, 12.91873197819723
893, 12.883524440091378
894, 18.092442832032248
895, 24.807292928119978
896, 21.917718359185983
897, 14.161363949284578
898, 10.57543778753552
899, 10.493441524885384
900, 12.92565735922085
901, 15.974943895259912
902, 18.165346401742227
903, 21.465042281442265
904, 26.644501560795334
905, 27.613836600221248
906, 23.185260092115413
907, 25.401838250671744
908, 34.95292086125232
909, 35.70255926846471
910, 28.40307783653202
911, 28.386449750050588
912, 32.3815870727135
913, 26.05592667744577
914, 14.628631707757904
915, 10.120109565307303
916, 8.595511424909546
917, 4.430437556096194
918, 1.8002742155481428
919, 3.6288390695679027
920, 8.62657476016102
921, 15.16349528786759
922, 14.996615693351487
923, 6.446632328900023
924, 3.8297923748814355
925, 12.061534528680568
926, 36.0044659187115
927, 69.84274159776123
928, 88.5474058219329
929, 90.48326932527789
930, 77.52151592680025
931, 55.15388593518992
932, 32.21122473857099
933, 18.43987604311269
934, 23.65305238469341
935, 30.52914518405055
936, 27.852879399320727
937, 17.891150727193235
938, 2.876270605700256
939, -2.9622707745002117
940, 3.108092613766985
941, 18.472258149154868
942, 39.414076566463336
943, 55.04647414170063
944, 61.22788693930056
945, 50.440815916431575
946, 34.21657974725758
947, 31.079502719274387
948, 35.97093507028808
949, 43.79649751217789
950, 50.377318707914355
951, 53.1569008022941
952, 50.14797055050599
953, 41.349118005716264
954, 33.12088138509898
955, 26.291258117666075
956, 17.696115049619266
957, 10.913425557136406
958, 18.04865923860325
959, 32.966424230728535
960, 42.54087477594703
961, 44.29221441454342
962, 35.78740253923365
963, 22.206385091989432
964, 7.404408318280275
965, -0.1800445646758817
966, 1.7092082640022
967, 1.701750062309884
968, -1.8926958325605483
969, -2.0358096945844864
970, 1.891684675390934
971, 8.826456900565518
972, 13.566177536930127
973, 6.487357187369071
974, -2.1501345244550976
975, -1.05371399984665
976, 1.9067518164545163
977, 1.9955138320713104
978, 3.3287837193001906
979, 6.636541158129603
980, 5.005925260881213
981, -1.2174235294496611
982, -3.632812311007001
983, -2.639774243631109
984, -1.2770314935924034
985, -1.8086111064114903
986, -7.743989567656627
987, -8.786661825250121
988, 3.7830911898827253
989, 9.06977674152381
990, -1.9950255007427131
991, -2.5131127240501883
992, 14.397137655688311
993, 43.756721445255835
994, 88.32400370822211
995, 159.6849895485509
996, 248.48099504900347
997, 335.66514330652376
998, 412.72735691784305
999, 471.15655093912164
1000, 502.07173742032296
1001, 500.15811690005785
1002, 461.31908429380906
1003, 388.39155776850225
1004, 307.95853731189254
1005, 227.06908902637747
1006, 153.7488559669971
1007, 90.6927365078875
1008, 41.81860521737781
1009, 10.146233181498701
1010, -0.23902072462124124
1011, 8.733554018558607
1012, 36.46091670803503
1013, 68.32779442864035
1014, 96.7489641406828
1015, 102.02688622050846
1016, 90.73386747530185
1017, 94.30171729726908
1018, 116.97554701761601
1019, 162.09781727696782
1020, 222.39125012700129
1021, 290.3258230085637
1022, 339.27353351767056
1023, 356.29828406032084
1024, 341.98978650696586
1025, 301.0603804339303
1026, 255.67316839334694
1027, 211.61916290414865
1028, 176.2387157304188
1029, 144.44942296075806
1030, 108.75755695784278
1031, 74.86189791586139
1032, 46.59475453929895
1033, 21.073428686269153
1034, -1.0266499288843534
1035, -7.68043356604494
1036, -3.607316262453651
1037, -10.416872220244613
1038, -19.74897456164649
1039, -12.619828089926841
1040, -4.371112863917006
1041, -8.54036933848397
1042, -4.1821292230883955
1043, 15.745340061373554
1044, 20.612866465840398
1045, 7.58730881223164
1046, -3.438566217837433
1047, -11.110096123493577
1048, -17.376512328498166
1049, -17.91451846424866
1050, -7.659031476404607
1051, -2.0586692255440084
1052, -8.020859485194478
1053, -11.08387461930306
1054, -8.900342693317725
1055, -8.22279923205906
1056, -5.776434617853511
1057, 8.413026527857483
1058, 29.858235745878574
1059, 53.52188300320813
1060, 95.0674889406364
1061, 165.0125458026514
1062, 240.93411734722145
1063, 321.89113766029186
1064, 420.46643606142015
1065, 537.9466996751592
1066, 673.5209408317178
1067, 834.4690915872729
1068, 1028.8601200326486
1069, 1245.3177576902208
1070, 1477.0094821576054
1071, 1716.190154741157
1072, 1956.853955595622
1073, 2181.792586741521
1074, 2382.5148909640902
1075, 2545.3221991049877
1076, 2664.7668441267615
1077, 2735.5730036677314
1078, 2748.1267170238916
1079, 2699.279066505629
1080, 2599.7412886472725
1081, 2453.8904783966254
1082, 2268.91140047961
1083, 2057.172097875365
1084, 1838.8589265653507
1085, 1603.1265257318935
1086, 1343.4531715745327
1087, 1097.5711589692737
1088, 877.7836053642543
1089, 675.0987176004121
1090, 493.8897549541705
1091, 350.1415237226431
1092, 232.5071440063357
1093, 125.74839338154766
1094, 58.83261517275355
1095, 31.595421213866075
1096, 12.15370310253752
1097, -7.091824341497386
1098, -19.906254571063528
1099, -28.511611445780318
1100, -37.11324287130742
1101, -37.020453213569226
1102, -21.242751810994605
1103, -6.222736259623844
1104, 3.2205821629868296
1105, 10.414717574075667
1106, 14.153164143955564
1107, 11.122753474095589
1108, 3.9796349117862064
1109, -3.9173687613365473
1110, -10.568201682027848
1111, -15.33449264802266
1112, -17.707317179100528
1113, -16.645184537503383
1114, -8.441375908802229
1115, 1.7890465827442767
1116, 5.487510551404284
1117, 8.632427326771904
1118, 14.306365579722524
1119, 13.897135240098123
1120, 7.514105269494621
1121, 5.7365493578345195
1122, 6.8664978007050195
1123, 5.640974480035766
1124, 2.828956189290011
1125, -0.8481813803607565
1126, -4.716308438684337
1127, -7.693661563410387
1128, -4.1374941581120765
1129, 5.56355018010936
1130, 18.595532585402907
1131, 28.234094206170994
1132, 29.468666869466688
1133, 34.00974022771129
1134, 45.06832733361966
1135, 56.98117789108505
1136, 66.71083999971825
1137, 69.33462036403876
1138, 68.5768180050029
1139, 67.93397209747968
1140, 66.19476371821224
1141, 63.69147010503298
1142, 64.77415054268863
1143, 64.71745889110503
1144, 51.35685256503666
1145, 37.98265107439943
1146, 35.86812236434639
1147, 23.60205076694092
1148, -0.22529517141742872
1149, -1.0612827268023466
1150, 10.22930070749726
1151, -0.2289518275347291
1152, -9.237456448056264
1153, 1.1702030266612837
1154, 6.166183551338463
1155, 1.8921790058975603
1156, 12.994520447203058
1157, 28.261961495485366
1158, 20.432869901329013
1159, 7.003180810778304
1160, 0.9016548930467252
1161, -3.5591196806647076
1162, -6.948634769323462
1163, -3.133919951548023
1164, 8.191534730535523
1165, 26.751350421649704
1166, 39.741071427994484
1167, 41.81764891451735
1168, 50.920985152021785
1169, 68.49804065987223
1170, 85.0895626929057
1171, 100.72368250228487
1172, 116.15066845950923
1173, 124.5832727145496
1174, 124.68348139193449
1175, 129.07030599489508
1176, 142.72957854360607
1177, 172.24996123210371
1178, 205.68783221188733
1179, 231.83293073559844
1180, 253.07599350512942
1181, 268.3788706084108
1182, 269.02551671573906
1183, 260.7782903613165
1184, 255.6104130466083
1185, 236.08756647428754
1186, 192.86955235123037
1187, 144.12809211739545
1188, 99.74900726282385
1189, 76.76983796107424
1190, 69.75114180745254
1191, 70.27222946975712
1192, 65.31948344318221
1193, 50.097438486717465
1194, 28.66852199661298
1195, 7.567261183817436
1196, -0.434625141500419
1197, 1.2894667721056976
1198, 10.033995284362845
1199, 18.33660633031218
1200, 24.832509545190305
1201, 35.724135389396
1202, 43.89884801570156
1203, 40.9498676176795
1204, 48.44493945261547
1205, 71.28079010343095
1206, 85.98590605211007
1207, 91.24708109389485
1208, 91.29978093321188
1209, 82.51617071817918
1210, 64.46708161037986
1211, 55.94709498508246
1212, 56.90970146736868
1213, 53.90663701908761
1214, 40.70429014349429
1215, 13.073440959122081
1216, -6.495051910757638
1217, -11.107526697990352
1218, -3.6148616314867468
1219, 7.758105058405135
1220, 9.99885274574467
1221, 6.749268426278832
1222, 1.2159152602168888
1223, 1.5792653917544612
1224, 8.75278298574699
1225, 21.26526027175487
1226, 24.39705777629638
1227, 9.718940702747659
1228, -1.2778298885602908
1229, -1.5142927785818756
1230, 17.883868693767454
1231, 43.699219667688794
1232, 58.75687962646248
1233, 67.410972344436
1234, 71.25708123180084
1235, 70.81824958031734
1236, 77.58630273326662
1237, 106.14778965919572
1238, 141.11078960413647
1239, 174.72636960419027
1240, 201.50124295616706
1241, 224.74402907265016
1242, 251.08240856807288
1243, 270.82593884650464
1244, 280.1493102578372
1245, 287.9825509926045
1246, 297.1840807374906
1247, 310.454568163359
1248, 333.252984593777
1249, 365.954940418105
1250, 384.272420401134
1251, 386.5081669014437
1252, 381.144639996264
1253, 382.7604103781516
1254, 400.3126205469853
1255, 417.02702571134
1256, 426.1672979121363
1257, 420.684874729669
1258, 406.46758467427003
1259, 389.68708223157546
1260, 378.8660419013322
1261, 374.5874476699421
1262, 371.46894353749576
1263, 366.5565313700647
1264, 357.28083726796945
1265, 342.13266463272066
1266, 324.6419601076093
1267, 317.6390192157221
1268, 312.6847113448905
1269, 300.9216089683123
1270, 290.5793688892584
1271, 284.14419229117675
1272, 281.3247500458672
1273, 277.1321953269321
1274, 266.49419827715815
1275, 250.05180460570364
1276, 229.17713892868824
1277, 207.7567549115488
1278, 191.23085696724957
1279, 184.17972396642517
1280, 178.28158633083717
1281, 173.17751305840488
1282, 175.9647814038574
1283, 180.84274213892127
1284, 181.19581151462444
1285, 171.07623949374943
1286, 152.25419735643163
1287, 135.2676643400091
1288, 124.20051807023447
1289, 120.64899315916455
1290, 110.0699970823282
1291, 92.70995989913035
1292, 79.8016269708537
1293, 72.68827392614548
1294, 71.07220841819503
1295, 67.3995589652859
1296, 58.97049628438549
1297, 43.60679214635002
1298, 24.51025793074291
1299, 8.569989457893826
1300, 10.22176939623364
1301, 23.004587428779587
1302, 26.04942610397643
1303, 23.993589989064276
1304, 19.65040089693548
1305, 12.262339741351298
1306, 3.934572766879228
1307, -1.248010804348496
1308, -4.411779136891482
1309, -6.417113801888945
1310, -8.545366207067445
1311, -2.9034973243708464
1312, 20.22015141100883
1313, 32.12916130356962
1314, 24.800369378793675
1315, 6.926153018683635
1316, -7.775313947389577
1317, -8.090307837411046
1318, -2.003632258195239
1319, 8.192569619500773
1320, 20.73116511339208
1321, 25.993327847203318
1322, 19.359960398268186
1323, 16.351746915079502
1324, 15.572641090938305
1325, 8.796768705456316
1326, 11.986757597467431
1327, 28.117869265383433
1328, 31.427405458301564
1329, 22.268175816690245
1330, 6.638194882469634
1331, -0.9807782569005212
1332, 1.8025340108788441
1333, 6.21954168272714
1334, 9.394289600759976
1335, 8.87867913117384
1336, -0.14732458932326153
1337, -9.338602823876613
1338, 1.1232054109823366
1339, 9.18910320538987
1340, 4.016468535995159
1341, 0.39629485833086164
1342, -0.9266355802930093
1343, -2.0548234778100323
1344, 0.08272701702901486
1345, 3.438616306897643
1346, -3.3926747799192754
1347, -6.878914614541941
1348, 3.786275133740446
1349, 16.770688909036267
1350, 26.961588254843036
1351, 29.68989385208181
1352, 25.123837904843185
1353, 17.712273193993383
1354, 27.197586512278576
1355, 40.62640477470302
1356, 40.34591280498296
1357, 35.7701798978851
1358, 31.25355697652151
1359, 30.719729159250278
1360, 27.35310677314908
1361, 18.679222168794126
1362, 17.068623200740376
1363, 18.63979285697667
1364, 15.11173525958543
1365, 15.057130130254222
1366, 16.3414493657466
1367, 2.5641764362522963
1368, -6.559554681757959
1369, 0.7800962699134288
1370, 4.451730614422331
1371, 2.9757479614694375
1372, 0.4144034895258528
1373, 9.745523955223803
1374, 32.37481627317402
1375, 51.03352826876676
1376, 57.70017583521735
1377, 49.42680059559859
1378, 44.50920572480675
1379, 53.57657993331634
1380, 86.97277822875537
1381, 110.21882088876578
1382, 109.77805978555034
1383, 87.24173691615192
1384, 71.9395662140364
1385, 83.99581183187104
1386, 102.53183355942531
1387, 116.35467905321309
1388, 114.550065544846
1389, 110.05836457357793
1390, 114.78574139869522
1391, 149.90380133782446
1392, 185.5902986336206
1393, 201.73813309158925
1394, 209.11196024408957
1395, 211.57301912962146
1396, 212.70123131672779
1397, 221.76085775671868
1398, 236.70345028822567
1399, 244.99718777084763
1400, 246.4393471898892
1401, 243.29077793391605
1402, 244.89101681798365
1403, 252.2089413761687
1404, 265.14117477552907
1405, 284.64209790586233
1406, 302.0983899469095
1407, 301.04748831963957
1408, 294.4515783020647
1409, 284.88316910478136
1410, 262.0920676732385
1411, 242.42596865296957
1412, 235.91870019669284
1413, 227.13078160902808
1414, 214.109431570791
1415, 197.9125258341486
1416, 181.81832679768695
1417, 162.7613447202515
1418, 132.26800329097182
1419, 106.56922161855994
1420, 92.80944010139365
1421, 87.94876169801557
1422, 94.65638988646049
1423, 109.04585281777338
1424, 91.70541576956441
1425, 58.6819707115402
1426, 40.791659121162866
1427, 32.26834620406089
1428, 24.88169199403262
1429, 5.169034766938125
1430, -4.329579508779602
1431, 1.0153954596431731
1432, 5.474880340136679
1433, 20.73933536115544
1434, 48.19547374853619
1435, 48.49237462976805
1436, 34.82343659869264
1437, 28.13944254078217
1438, 15.263432173312822
1439, 4.762310740429712
1440, 17.185647390809777
1441, 30.698615016959593
1442, 36.17224311865925
1443, 31.08245454624921
1444, 31.7692905760141
1445, 40.51798013836276
1446, 30.393454622668855
1447, 18.909145967834206
1448, 18.264295675588187
1449, 2.1444923284453807
1450, -13.637406493407184
1451, -7.729914709159516
1452, 4.283116057127927
1453, 20.37200725609125
1454, 40.317845814683096
1455, 43.97605836273294
1456, 33.31637876366676
1457, 30.888647129862647
1458, 31.170034774412898
1459, 29.816983266691636
1460, 23.132074181475673
1461, 20.626499672767068
1462, 28.81605833119545
1463, 46.91294932493065
1464, 60.35280608747644
1465, 57.621462656179006
1466, 53.291411272407004
1467, 50.84464165858333
1468, 51.12252455433179
1469, 52.585634283834224
1470, 55.40024517113034
1471, 60.676201056334435
1472, 70.47814859609355
1473, 82.7955144821616
1474, 91.56232667106292
1475, 97.40865525448646
1476, 97.07353802676346
1477, 80.6229139104563
1478, 75.11035673562685
1479, 87.0006482526702
1480, 84.57771614198339
1481, 82.60325377237166
1482, 87.18728019140701
1483, 70.13060282398533
1484, 54.1062915545067
1485, 57.08143143254836
1486, 51.32751486695122
1487, 46.2191833759498
1488, 52.52427902106524
1489, 38.48739124161159
1490, 18.579271322233808
1491, 18.942495300543328
1492, 23.964113405040962
1493, 29.299355047937638
1494, 33.14605615877758
1495, 23.586454125318596
1496, 5.28754803142931
1497, -5.9126391233616005
1498, -8.86753390326055
1499, -3.888375176965269
1500, 7.92003761696526
1501, 23.23500529815817
1502, 35.05487724294767
1503, 30.08981361418398
1504, 18.518842849377393
1505, 9.336437096576105
1506, 13.98887946033517
1507, 21.56179250813659
1508, 27.288800623121006
1509, 33.67983546870596
1510, 35.43931627597851
1511, 30.50555972787572
1512, 21.836387616277307
1513, 14.35279766339147
1514, 9.982178037838707
1515, 6.047508366472471
1516, 14.330789065549766
1517, 32.307909955821174
1518, 22.093798600392688
1519, 9.500387426488828
1520, 8.26443861143241
1521, -4.005905224104708
1522, -6.148072931706338
1523, 8.6506113004192
1524, 2.55229331665862
1525, -2.685125239745844
1526, 7.238497444487507
1527, 17.079807313129436
1528, 21.350583816095764
1529, 21.024929301289603
1530, 31.386640751124446
1531, 27.58328395245701
1532, 1.430632292946484
1533, -2.3034001854970256
1534, -1.8499010856455698
1535, -4.731407676888921
1536, 23.230035993545016
1537, 43.560458843744414
1538, 33.48208353004759
1539, 17.12873709924645
1540, 2.4413828491565255
1541, -8.170911969092344
1542, -19.586901637751453
1543, -23.004161342985867
1544, -13.932709189254865
1545, 3.2085972060906442
1546, 19.663509515304327
1547, 30.753104601294808
1548, 39.00860422562732
1549, 38.5184302364238
1550, 31.204820069238167
1551, 31.471499645815015
1552, 18.226433934650004
1553, -3.6476716864542595
1554, 4.550262759287534
1555, 5.3258974426076975
1556, -8.213784450895105
1557, -14.030155860729565
1558, -21.924173428002064
1559, -26.36194576307264
1560, -8.899527955522103
1561, 2.099389242389975
1562, 13.03431908153209
1563, 50.998575310941874
1564, 105.33613485955709
1565, 179.83914969586192
1566, 264.7336765165112
1567, 331.8201224436218
1568, 383.046711174195
1569, 435.29676677381735
1570, 530.8340726643104
1571, 658.9368018487995
1572, 800.6819204833613
1573, 957.9272983969151
1574, 1125.1009479116644
1575, 1297.4418666702295
1576, 1474.8240325232723
1577, 1637.0431752702361
1578, 1767.0660235217492
1579, 1851.7739273201923
1580, 1904.552242248443
1581, 1916.4502860821053
1582, 1843.8825493311247
1583, 1712.7722090582156
1584, 1537.1340873443946
1585, 1326.2278915531274
1586, 1133.0773641077287
1587, 959.7256277703624
1588, 782.7510658325486
1589, 604.8224650387633
1590, 443.18719966793356
1591, 319.4219747695753
1592, 242.063156453548
1593, 183.54574184813043
1594, 122.4748433369781
1595, 77.3144563380165
1596, 50.92548341654151
1597, 34.19225332499184
1598, 19.064787506750008
1599, 2.425731604715452
1600, -12.909733955744855
1601, -17.402424338324067
1602, -20.21606807538035
1603, -20.93016210947451
1604, -14.194260104171917
1605, -6.651198070932537
1606, -2.106995421393549
1607, -3.934605896166545
1608, -15.349023723351252
1609, -15.14613364520892
1610, 3.559180747420214
1611, 3.2338343980869695
1612, -0.1575533569189247
1613, 0.21020276942340388
1614, -3.238087244878443
1615, 2.8210031738595944
1616, 13.713971952078168
1617, 12.282894285105954
1618, -3.9614189545777663
1619, -13.429624677351399
1620, 2.203517283581391
1621, 16.314490062663026
1622, 25.818390692467233
1623, 27.713277721829968
1624, 10.998300816686651
1625, -3.33542993983599
1626, -6.346653603963091
1627, -0.5440760006450773
1628, -2.163161606542076
1629, -2.4944206863744967
1630, 10.068433084096228
1631, -0.5595658084647539
1632, -4.67681644074878
1633, 13.78665998266149
1634, 16.530112300158976
1635, 29.649603867031374
1636, 53.08780167385123
1637, 57.15548593460369
1638, 47.52068769000232
1639, 28.195180924214924
1640, 4.2752237370067405
1641, -10.42119169109958
1642, -2.023648502215451
1643, 24.83922794006537
1644, 23.042741899164866
1645, 15.46610974338364
1646, 6.266874339372521
1647, -13.930406158869118
1648, -7.741828757807411
1649, 7.662760098654189
1650, 9.804025177949484
##END=



