##NAMES=
##LOCALITY=
##RRUFFID=
##CHEMISTRY=
320, 0.9045367565968263
321, 2.1196328067653667
322, 6.852816799241282
323, 15.960123529830526
324, 28.956623861157368
325, 41.79577538223566
326, 54.38345957701131
327, 66.53248526785319
328, 78.35204908006835
329, 91.07979854850328
330, 104.91914424996503
331, 114.73280194928157
332, 117.70180481512443
333, 113.95478100039645
334, 103.65451308209731
335, 91.30757300929281
336, 89.33081322837461
337, 96.56225661297958
338, 101.35841713801801
339, 101.95290260875436
340, 102.848060046932
341, 105.75026105447796
342, 105.98741410689126
343, 99.71522336593216
344, 93.89382699294401
345, 101.41042299425362
346, 115.49559301434056
347, 108.54733624432674
348, 80.10910275323977
349, 52.057001514601325
350, 29.704285613309366
351, 10.77469274710711
352, -4.8238667842410905
353, -10.13245473858342
354, 3.9658588732913813
355, 28.1660748446061
356, 36.323514202668775
357, 30.632075958013502
358, 27.855120015567536
359, 29.65647639038525
360, 27.421424184934494
361, 18.565696396471594
362, 7.855089779264745
363, -1.7160976104923975
364, -7.322291770989523
365, -5.423292813642547
366, 2.5529229163598757
367, 12.815480648824632
368, 24.588537468399863
369, 36.41497082948854
370, 47.215306737900846
371, 43.833038042972476
372, 21.936022849482015
373, 3.5972600597292512
374, 4.390242079043219
375, 11.163008280801932
376, 5.104081753322589
377, -6.523022001966183
378, -2.6259934748795786
379, 14.721756463596648
380, 22.40186701176117
381, 17.60992646462182
382, 18.008070603553733
383, 29.52562076641425
384, 34.79372891081357
385, 22.05206847168938
386, 4.372990671463413
387, 0.2240065899459296
388, 4.902089616038211
389, 4.987670586208878
390, 0.41509612960180675
391, -4.864681451008437
392, -10.613630668018686
393, -15.150889715959693
394, -18.210065149336515
395, -18.68793681511579
396, -15.790321971650883
397, -10.451581196705774
398, -3.617533742029991
399, 3.0197854508746786
400, 4.564562800879685
401, 3.7084656908537
402, 12.761963884932356
403, 33.4058378591526
404, 60.708204983023734
405, 89.69172001263905
406, 124.1114805061452
407, 165.74127936604918
408, 205.04795864263997
409, 233.3534115208131
410, 254.87178272675555
411, 277.122580715371
412, 301.29626297164486
413, 330.838778751322
414, 365.13625764611925
415, 398.48438603577506
416, 429.38951827498886
417, 450.56183209061055
418, 459.618175197098
419, 463.47358532911994
420, 466.4275230161443
421, 463.1764825556975
422, 447.34459355803756
423, 422.7098785317339
424, 397.694086790485
425, 373.65352264470766
426, 354.8184853157063
427, 340.7647964770322
428, 324.5819697024285
429, 304.4359314367671
430, 273.37375612032065
431, 228.7812676630806
432, 185.25852033903766
433, 153.06455487705853
434, 130.84213897055497
435, 116.78749123384887
436, 106.30560037277382
437, 88.5052683521526
438, 64.3586514067324
439, 39.92725640145136
440, 20.787993531697794
441, 12.293549177261866
442, 14.956025566155859
443, 24.56158615401864
444, 40.26076890087279
445, 52.28744246779661
446, 55.685369935692506
447, 57.44406692140183
448, 66.28091776308247
449, 80.11125580799171
450, 94.32463460216104
451, 106.11317103531928
452, 105.52268374636287
453, 93.21962524508899
454, 80.29377160804415
455, 68.75071271710931
456, 57.25062785207092
457, 45.3849977161276
458, 34.95116062576153
459, 26.957573083130683
460, 16.878632235643636
461, 0.26106531159985025
462, -12.95337310639843
463, -6.987705430164169
464, 9.742842691631267
465, 11.025525401229515
466, -0.9090760501853765
467, -6.842218680583301
468, -5.612652617729054
469, -4.79948576219067
470, -5.954174997473274
471, -4.512958843426986
472, 1.4487436401000195
473, 2.693238988432313
474, -7.44932843488732
475, -17.831490971499534
476, -15.854120333797255
477, -5.278191714793138
478, 7.334628658105885
479, 21.128331782128498
480, 32.371158783264036
481, 39.84422111131971
482, 38.62358974412655
483, 29.61603685304044
484, 27.869637231925026
485, 36.57907473962359
486, 45.53469165086608
487, 50.675668003184455
488, 51.112524514776396
489, 46.2797526944928
490, 34.51215702218269
491, 14.045073503539697
492, -5.929635851213334
493, -10.057716098200672
494, -1.98066178655381
495, 9.500177891538442
496, 20.764323689355024
497, 17.560395336682177
498, 0.40822420059657816
499, -14.724247079393535
500, -25.603393444645008
501, -25.461272247124725
502, -12.010011541253789
503, 7.647828926370039
504, 31.28274207532513
505, 56.862660476802375
506, 83.51104267197206
507, 111.45820568698446
508, 148.18555458214405
509, 189.61508353129102
510, 227.67420784376372
511, 261.3430866942017
512, 288.20499279688556
513, 312.01509307188235
514, 350.9561414627633
515, 404.8208137553902
516, 454.7972144396422
517, 496.34799577382455
518, 520.452877709602
519, 524.4190395038495
520, 513.47717486704
521, 490.15555661531744
522, 460.38348651230535
523, 428.41887586857456
524, 388.18159265579243
525, 332.8503710919117
526, 274.22695078077277
527, 232.46501588466344
528, 203.55867491959225
529, 176.54359615014073
530, 151.75971762749805
531, 132.46001428432783
532, 116.65237462446294
533, 91.35971647468295
534, 56.456503630016414
535, 34.840202629893156
536, 27.636070275913426
537, 20.45631979180871
538, 8.208986332279437
539, 5.361246017621852
540, 19.521695237071526
541, 40.67653329515315
542, 58.43306497410458
543, 75.56963137483217
544, 95.16579667444967
545, 109.77593143852619
546, 107.29496958022992
547, 95.62129453040325
548, 93.46152261814177
549, 97.07426009993196
550, 91.6666818979138
551, 79.0554975741261
552, 73.29546047588155
553, 73.72205340018672
554, 63.028009888964334
555, 39.766327405032825
556, 24.91743051558842
557, 23.43419277653993
558, 18.490288222089475
559, 3.932819804466817
560, -3.6259492609242443
561, 3.696643074912572
562, 10.697947028665112
563, 5.021449592572026
564, -3.0756143374892417
565, -2.8397294099368082
566, -1.4713221987303768
567, -9.815438886816537
568, -18.634643866781516
569, -7.567215805513115
570, 14.952578946458743
571, 20.72343839999985
572, 12.698004425667932
573, 9.095126131055167
574, 9.347283895510827
575, 0.7447033135113088
576, -15.988346646998252
577, -23.29207959884525
578, -18.58013989996016
579, -9.03522342493261
580, 3.652206911338908
581, 11.251772988119228
582, 10.473002175772763
583, 7.281007904618491
584, 4.654056855484214
585, 1.243432961829967
586, -3.7190876400527486
587, -1.9836711645139076
588, 14.4739928017475
589, 31.462134278069698
590, 31.397402463873732
591, 22.217661713564667
592, 16.858741278334037
593, 14.451223133193707
594, 12.779725560390034
595, 13.191280592392104
596, 19.566310889499164
597, 29.494850692868113
598, 33.66678646390665
599, 31.757371539161795
600, 26.031984203670618
601, 17.412284984081452
602, 9.786839090930243
603, 3.820836225084804
604, -0.03822839375834519
605, -2.1768505920622374
606, -2.9831187508993935
607, -2.7320853848491424
608, -3.8776695549495344
609, -7.261145639066626
610, -8.519574108706138
611, -5.715170677237893
612, -2.368641584846273
613, -0.3115950188403076
614, 0.5339062115131128
615, 0.16319869745689175
616, 3.2249325242564737
617, 14.289860205078185
618, 28.644630621373835
619, 41.183024986760984
620, 48.109732852067054
621, 43.90005568597962
622, 31.0829519458739
623, 14.301180029523493
624, 0.06969547655398856
625, 2.5616919399928975
626, 17.757918679762042
627, 32.5620579038939
628, 44.98623261197554
629, 50.84994312170079
630, 51.69022086512655
631, 54.89106146477184
632, 60.48426198232414
633, 64.93652950110004
634, 67.27309587745958
635, 64.47704393238018
636, 56.91849141007356
637, 51.00246694362568
638, 48.46991308697966
639, 53.45867979128866
640, 65.78191602183347
641, 71.2208344746889
642, 66.10086428668183
643, 57.58860116650931
644, 48.021064831916874
645, 34.72645884637177
646, 16.953518804856685
647, 4.753254410884665
648, 3.1555067805868475
649, 2.918892996503473
650, -0.8394511203919137
651, 3.2704256868555603
652, 23.109460442158706
653, 40.701231668997934
654, 42.88433123936147
655, 40.525297610162625
656, 43.08646332908461
657, 40.726038657621984
658, 23.416095103035786
659, 5.17357360697747
660, 2.605566723032325
661, 5.47213728455813
662, -0.8355258533053984
663, -9.354733353852907
664, -9.866595264846865
665, -6.493418731277643
666, -6.277418595181189
667, -4.079390588042543
668, 10.717215578620653
669, 31.30348198121328
670, 41.078088692753454
671, 41.348452476276634
672, 36.825420033226465
673, 27.822857341369854
674, 14.60233375909661
675, 0.5452760496420979
676, -4.096246248929447
677, -1.4424616226906437
678, 0.9141667862656959
679, 4.371817460539205
680, 15.864285806030239
681, 31.31270378161662
682, 33.589264869382305
683, 24.95846539697459
684, 23.349692334352085
685, 28.639295208415206
686, 30.038806150182836
687, 28.303202147915044
688, 34.805982364726106
689, 48.51706729191619
690, 54.22525406848172
691, 51.393047272399826
692, 51.50457014088738
693, 55.9729832815633
694, 61.12235128173529
695, 64.96988761461603
696, 58.15194129367205
697, 40.22340341465315
698, 21.98839613448763
699, 6.394450174324902
700, -0.3135193802206686
701, 2.296105244558248
702, 13.247313031245085
703, 31.737345712252136
704, 41.365574115372965
705, 39.760721993051675
706, 40.08446720054985
707, 45.52361313419101
708, 54.15765569136033
709, 65.23254400507153
710, 76.0826458701772
711, 86.11185646122226
712, 96.89032212446546
713, 108.58547030618502
714, 117.90131878522175
715, 123.84091623356812
716, 125.91881598558712
717, 123.858380851623
718, 115.98874995705228
719, 102.40514562479575
720, 90.80797499603682
721, 83.5218937274542
722, 80.1866183141808
723, 80.54518786524591
724, 82.68205667417533
725, 85.53621403107468
726, 82.95901852239194
727, 73.77484690921733
728, 67.49901504442937
729, 66.90636101394193
730, 69.91264183789485
731, 74.5597898517724
732, 64.12981888314539
733, 35.31251578527281
734, 9.74413762471113
735, -4.816214653754969
736, -5.828876493433199
737, 6.448089464631948
738, 17.918662899180163
739, 22.945497225352938
740, 14.653609146130293
741, -6.395937507340022
742, -14.730211594304365
743, -5.600588646678716
744, 7.634645108954601
745, 20.91063482477989
746, 25.36955208404902
747, 19.521832001469193
748, 9.724896029277943
749, -1.429016641343651
750, -4.9760111377615885
751, -0.7212461222159163
752, -0.0434820444017987
753, -3.4618911129532535
754, 2.8203816272784934
755, 19.59407116838156
756, 30.56924059849075
757, 33.38966265616932
758, 32.50007530334847
759, 28.080918096827645
760, 16.65729277510286
761, 0.9748626116527248
762, -1.119083020337257
763, 9.124448381914362
764, 13.678600731688675
765, 11.216823956707003
766, 6.836614549590422
767, 3.151725518946023
768, 8.726460248792364
769, 20.852549414678833
770, 27.07545806175449
771, 26.828300319149093
772, 22.2984170470329
773, 14.298291151193553
774, 4.792795895869631
775, -0.39157639880522765
776, 12.963669042042966
777, 34.76557950121878
778, 36.83399057565998
779, 24.53333343296663
780, 13.419908696188486
781, 4.854144001583336
782, 0.8529706583537973
783, 4.891609007057923
784, 24.39721648466889
785, 43.788109651828336
786, 38.28445650811409
787, 21.777735810871945
788, 14.645535978960424
789, 13.338719037251622
790, 13.224354110790273
791, 13.538181559111763
792, 13.468852672480125
793, 12.106783401020266
794, 8.624370496725305
795, 8.174909187841877
796, 14.114342908776507
797, 25.185148364297902
798, 40.86317231641351
799, 47.755833282411686
800, 38.66660065893916
801, 37.66786998226348
802, 55.864312545497796
803, 67.80345206067523
804, 63.07783460117116
805, 52.24106190719749
806, 39.02544364750929
807, 21.229698005574164
808, -0.32635539670513936
809, -9.99893643125165
810, -5.703702810219056
811, 4.030278436425988
812, 16.38468277382117
813, 19.021791939038394
814, 11.806691870303439
815, 5.676622771155735
816, 1.6509574801123108
817, -2.7341448948773177
818, -4.899615992488862
819, 6.942361534788461
820, 26.241643764439914
821, 28.812569490144824
822, 19.42191954090572
823, 13.710204114807084
824, 9.239978540362017
825, -0.34773011358970507
826, -7.705079683634267
827, -1.1303487029124426
828, 11.176680607661638
829, 17.32887374727875
830, 20.815143815204465
831, 25.35055954456834
832, 22.655649748704718
833, 6.114090704214277
834, -2.8694991910260796
835, 8.041631838275634
836, 24.079576633656643
837, 36.11044591406062
838, 43.41933970149307
839, 45.7786895792035
840, 44.243520497250074
841, 40.531600441972614
842, 48.650869507966945
843, 69.28179390633431
844, 80.12901636379956
845, 78.06158343908737
846, 70.95692885661515
847, 62.256221434612826
848, 61.43169530968271
849, 66.15776819624807
850, 65.2447224510679
851, 57.14253056458642
852, 40.13527241876818
853, 19.107269663660418
854, 3.9053031958712836
855, 0.38531333097989773
856, 16.097448539345805
857, 32.068934220594656
858, 26.547962322725652
859, 15.529155380235352
860, 12.484352555456098
861, 13.58376037136486
862, 16.4765161389098
863, 23.37472060268169
864, 34.18862941909606
865, 29.14558260860872
866, 4.089216056818941
867, -8.234131660664843
868, -2.008810823980639
869, 10.757532659209119
870, 26.267245658847287
871, 36.91602598855957
872, 41.81060763852747
873, 41.66262562946304
874, 38.69589421996966
875, 38.89840153029263
876, 38.21319477329757
877, 27.582534560548993
878, 13.462996516796693
879, 5.97724494056115
880, 3.054771164433987
881, 2.6727893897302692
882, 5.44701721711067
883, 11.419996502315826
884, 12.21078690816671
885, 3.962318912132332
886, 0.5764403448777102
887, 6.272233597612285
888, 6.095714726773622
889, -1.858071569850381
890, -0.9986854350245267
891, 9.240004516572299
892, 14.898789026951818
893, 15.830838963376891
894, 18.022772275654006
895, 21.507768388293243
896, 25.142871210986414
897, 27.404638929398516
898, 25.75455061518619
899, 26.28507253482735
900, 36.27739588059217
901, 41.59340175453076
902, 31.272036183758246
903, 22.904825263447265
904, 25.26586111282313
905, 20.455349760328545
906, 4.229760123231472
907, 4.557796959313464
908, 23.862908524609338
909, 30.011395524117688
910, 20.464482348183765
911, 8.346694708775885
912, -2.5073547245715417
913, -5.559768006442482
914, -3.5620054594583053
915, -1.9532717885854254
916, 2.5726733756380327
917, 14.816713301853497
918, 26.071788474971072
919, 29.241166038267465
920, 32.04264387725766
921, 38.14276501562449
922, 34.236977857123065
923, 17.455472252135905
924, 9.344290660293382
925, 16.583156989754116
926, 39.835196272201074
927, 71.16678578214896
928, 79.82639651199634
929, 69.7382719703653
930, 57.905268667625705
931, 45.854953623924075
932, 34.78323005267589
933, 31.80491412589413
934, 44.0138877120512
935, 45.125951607759134
936, 19.443996212641423
937, 1.9351296166805696
938, 6.138667142346776
939, 15.97567554335069
940, 25.460920809692425
941, 29.481689012550987
942, 26.272772703758847
943, 12.448624542633297
944, -4.1291607873458815
945, -3.8548281739015238
946, 4.495402736482902
947, 6.6025539874872266
948, 3.8999480782226783
949, -1.1296071090714577
950, -1.2776505087833812
951, 7.6259900401175855
952, 19.789546367196408
953, 32.26705449012047
954, 38.54335699275907
955, 39.862186043760175
956, 49.78553698516885
957, 66.09393080565974
958, 76.53922282637609
959, 77.33386586405004
960, 62.91103373667033
961, 42.066136207402906
962, 25.0748930329612
963, 19.63359417758511
964, 29.908525336744106
965, 33.86914700617558
966, 23.62449017392123
967, 10.506713184613545
968, -1.2528142997382474
969, -4.533076117973451
970, -1.0203363979626374
971, 2.1929891560509986
972, 4.14604957282836
973, 3.6172066805891063
974, 5.974795105919156
975, 17.462579210627837
976, 35.05941324486048
977, 56.29452083395245
978, 63.59023630966567
979, 52.364818769230396
980, 39.96005470977275
981, 31.182118661309687
982, 30.205764162643618
983, 35.704276112575144
984, 42.84645836160644
985, 42.43427523095352
986, 20.605701322290997
987, -3.688232228302013
988, -14.283921586214547
989, -12.059165743648464
990, 2.557058231719566
991, 22.16840882198153
992, 42.31567996186686
993, 53.55555711064244
994, 58.692168443620176
995, 71.63289561172178
996, 86.32412811651261
997, 89.54096902931383
998, 91.74028437457991
999, 103.90072956737822
1000, 119.57003180471384
1001, 134.32645188674678
1002, 137.3112231168809
1003, 124.04257789427515
1004, 88.30070818136483
1005, 38.91656665816663
1006, 10.001753410012043
1007, 1.8102867138236434
1008, 6.533140439385306
1009, 16.190817452681586
1010, 21.304069226689307
1011, 16.250327375233837
1012, -0.542394725443728
1013, -7.7496283355553715
1014, -1.4826432593115442
1015, 6.258421227802728
1016, 16.025509375004958
1017, 33.2031944878554
1018, 53.12132310313859
1019, 66.78593019840082
1020, 83.38539960907838
1021, 110.86302578225127
1022, 127.5859441992875
1023, 124.0433765205064
1024, 111.11281010834296
1025, 92.47008481797138
1026, 71.95429903608306
1027, 53.651226667355104
1028, 46.79155339775548
1029, 42.219758061198036
1030, 26.741748268327683
1031, 13.68294639387409
1032, 12.834476211609626
1033, 6.760286697960055
1034, -7.601478395697313
1035, -16.333378354706838
1036, -18.637892535708716
1037, -19.136445600549223
1038, -15.453308812439445
1039, -2.1080071646267697
1040, 9.383513657435287
1041, 7.780595299118659
1042, 5.3011168415469
1043, 6.945866050429686
1044, 6.265157712525479
1045, 1.7665854000922536
1046, -6.247603859555966
1047, -14.073541503352317
1048, -13.127415851417254
1049, -7.515383384987899
1050, -1.7733300135300851
1051, -1.18737120115361
1052, -8.474307454609743
1053, -20.345998170002076
1054, -32.96865399145099
1055, -29.056197939950835
1056, -13.923083864890714
1057, -5.217364369973438
1058, -0.013467824764575198
1059, 5.436168129939006
1060, 4.237746420274561
1061, -5.311260893911367
1062, 5.37775958332054
1063, 38.93807159330299
1064, 66.37946944483178
1065, 103.83286693254581
1066, 196.1918571089359
1067, 312.18242342628855
1068, 426.54298195313413
1069, 552.9937634408577
1070, 695.8723121217392
1071, 824.2589184208309
1072, 938.3596156120525
1073, 1074.3689385046307
1074, 1223.4029035268159
1075, 1357.8951355558486
1076, 1457.9125010298287
1077, 1505.1661430344002
1078, 1515.148097655659
1079, 1495.2050489069613
1080, 1446.7832140084079
1081, 1370.1010168374653
1082, 1264.790671144328
1083, 1128.9933372944445
1084, 959.682104218507
1085, 787.9421427167597
1086, 637.6489704901182
1087, 504.7354263718091
1088, 385.8796271834815
1089, 270.0794759779344
1090, 160.3402469850514
1091, 85.88129403594189
1092, 38.40022172596787
1093, 10.813892111056475
1094, -6.654486257466488
1095, -20.087393305870137
1096, -34.969447008820225
1097, -48.58443739478162
1098, -40.640042248834106
1099, -22.796741955866537
1100, -21.1443036585938
1101, -20.87035058516767
1102, -10.35057907294481
1103, -6.438081744619922
1104, -11.939560499315121
1105, -6.741383555918674
1106, 3.3716753629942104
1107, -6.162387905791775
1108, -18.780906402745586
1109, -14.573476953438558
1110, -5.1857538073657
1111, 3.4379979422812994
1112, 4.7856504062967815
1113, 0.8743520049185918
1114, 3.952102201505795
1115, 12.964563680833407
1116, 23.89420728475602
1117, 33.30715717020985
1118, 38.33233479657429
1119, 30.76874883905657
1120, 13.521526465869101
1121, 8.360342553649843
1122, 10.044373005959187
1123, 4.5517866337745545
1124, -1.9746868701674885
1125, -5.868737251622633
1126, -10.772662196112151
1127, -14.734661369255946
1128, -1.002742071029843
1129, 24.66612273991882
1130, 42.672704635328046
1131, 59.81041235549742
1132, 81.5475958624877
1133, 92.3510779100327
1134, 89.25652210975363
1135, 86.69941239058448
1136, 85.21640337791473
1137, 81.23492823624247
1138, 80.88119533746521
1139, 89.34708590962032
1140, 96.9979483054226
1141, 98.2933322448182
1142, 82.85823247537337
1143, 57.856039862472244
1144, 43.040413195895326
1145, 38.528698271639996
1146, 43.236151396880814
1147, 47.94026644957057
1148, 47.95784522658778
1149, 36.651596788670304
1150, 17.850628958822426
1151, 1.885763900944312
1152, -1.7869100747516313
1153, 12.11545272205035
1154, 14.67110801775516
1155, 0.7434708128901093
1156, -6.511159939642539
1157, -4.9037999652528015
1158, 5.546895341601157
1159, 18.707448615612975
1160, 28.73724356366938
1161, 23.721257741092813
1162, 5.16923097213612
1163, -6.467665412947781
1164, -6.388610790033454
1165, 10.392801454903292
1166, 18.930364000088275
1167, 6.190581081712935
1168, -3.259630202077915
1169, -3.37386234523251
1170, 9.628319172886222
1171, 30.058292137998706
1172, 47.299588328019354
1173, 51.05452116279889
1174, 39.808007537487356
1175, 35.996770036559155
1176, 44.263963550794415
1177, 65.88955251512357
1178, 84.84116689675761
1179, 87.47501035781124
1180, 94.76837306160996
1181, 112.56588281752579
1182, 133.5910030614466
1183, 149.798684741035
1184, 148.4533221112988
1185, 124.34826122899653
1186, 79.34348334537572
1187, 60.35493196523362
1188, 65.83089955666742
1189, 54.91426413558884
1190, 34.539682732577376
1191, 16.53924514597975
1192, 6.201456322845388
1193, 6.466827791194419
1194, 30.837798185730207
1195, 58.15133978455265
1196, 42.68639379414208
1197, 14.206564393939743
1198, -4.275244941127312
1199, -5.251489252603278
1200, 9.17573256570654
1201, 26.762384400412884
1202, 42.41376978374933
1203, 52.34716366024213
1204, 56.292524802232265
1205, 56.26090637957532
1206, 63.72701305981832
1207, 70.61085341820672
1208, 58.08435694966329
1209, 47.17290575873926
1210, 50.40784186945075
1211, 51.69598093639206
1212, 47.86579917148197
1213, 41.00657563802065
1214, 32.44779308344755
1215, 23.491459635702086
1216, 15.26914353157531
1217, 7.615201771750208
1218, -1.1975527284405416
1219, -9.137453903959567
1220, -11.935867527105984
1221, -5.367172702013249
1222, 11.127768108932514
1223, 22.69659535467372
1224, 21.846799896174616
1225, -1.5871499351248985
1226, -23.936318803351014
1227, -30.0570164409919
1228, -20.406416293613574
1229, 1.9354370820672102
1230, 27.136300363285045
1231, 36.50342625346207
1232, 15.238750172760774
1233, 7.182777474891736
1234, 21.069647841756705
1235, 40.214870872898246
1236, 62.634006635347305
1237, 81.36313550859677
1238, 92.28422797721555
1239, 99.36801614356159
1240, 131.35531619012932
1241, 176.28283554352788
1242, 207.21295527193524
1243, 219.39640221873083
1244, 215.40621524736343
1245, 226.19350294106425
1246, 248.68666521001342
1247, 265.34446003831863
1248, 270.50522533391927
1249, 262.18535280111973
1250, 250.80846238692902
1251, 246.30838038291927
1252, 267.13970946843506
1253, 288.1627001233078
1254, 290.7613400831294
1255, 284.2178198825229
1256, 276.26629648303265
1257, 281.78007612323404
1258, 289.9816505274348
1259, 290.17716667871537
1260, 274.5374402065827
1261, 248.30753289049426
1262, 233.8907618689957
1263, 233.5697213227745
1264, 245.76601715588276
1265, 241.88993021509145
1266, 218.7547362934256
1267, 193.68993251307074
1268, 175.3692202501743
1269, 169.94354712814288
1270, 160.6467721504962
1271, 144.9434598347766
1272, 131.84237997107493
1273, 118.20594003506426
1274, 100.67262762084806
1275, 87.58000337200633
1276, 74.13273050142129
1277, 35.643784081783906
1278, 6.353441524086293
1279, 13.736289388531759
1280, 22.160113166716656
1281, 26.960187505389968
1282, 44.30424095579042
1283, 52.05954515552003
1284, 31.51920409439481
1285, 30.616401534201486
1286, 49.79806097092228
1287, 48.39429395352249
1288, 45.0521948745552
1289, 55.71754839763844
1290, 49.12500382374833
1291, 28.217398875564868
1292, 23.645594683105173
1293, 19.658173405254274
1294, 5.409066520903707
1295, 6.834421192247419
1296, 19.140307755443246
1297, 15.650960869963683
1298, 3.381330751282576
1299, -10.68138411313953
1300, -19.577423514047723
1301, -16.3069626969982
1302, 11.542783434580087
1303, 35.63350574299784
1304, 38.63978211810331
1305, 19.39618728027881
1306, -4.291941396707671
1307, -3.2167259350178483
1308, 12.724495610862732
1309, 32.77920897048784
1310, 28.37222912365337
1311, 11.942534676775267
1312, 4.860600912319342
1313, 14.708363185867256
1314, 36.22824245457002
1315, 43.82192382827316
1316, 35.344195022469194
1317, 13.872507973997926
1318, 12.380706859268003
1319, 29.5353210606811
1320, 37.872004301547236
1321, 32.53393785401158
1322, 12.925056655327467
1323, -7.787769412854686
1324, -18.957761993254735
1325, -5.313716782183292
1326, 12.330741764480763
1327, 23.086347921060565
1328, 27.440254999778972
1329, 26.461360893933488
1330, 21.74137050190177
1331, 17.241924598235983
1332, 13.251597653045906
1333, 6.047295399201403
1334, 1.3498690173895511
1335, 3.678399422771122
1336, 4.450974966401645
1337, 2.737330781201308
1338, 1.3623534071598442
1339, 6.5640135435720595
1340, 19.261603665318148
1341, 25.78890665015024
1342, 21.520851025701745
1343, 3.6227846147774017
1344, -11.95160343889188
1345, -16.954324792666398
1346, 1.6167205869626287
1347, 26.684793049841005
1348, 40.638261630200304
1349, 40.8637590444813
1350, 31.59873876149402
1351, 22.957022640161313
1352, 24.5103678137948
1353, 37.28315241290011
1354, 44.235159805721764
1355, 45.48266132674064
1356, 44.75695830265738
1357, 55.32251141482686
1358, 70.41664843958267
1359, 61.87544183579905
1360, 49.09350191043586
1361, 44.898711682642784
1362, 44.74613053199823
1363, 46.54775558808967
1364, 47.034691639641096
1365, 24.216659534237806
1366, -11.77956540117657
1367, -5.685004508907923
1368, 16.773811678697484
1369, 32.92018522494163
1370, 42.455938732275854
1371, 41.899474238687844
1372, 26.91253577695204
1373, 26.607651703818306
1374, 42.75194888252156
1375, 41.78756261844012
1376, 30.04994014599731
1377, 16.319906870032128
1378, 10.545010196931798
1379, 13.475053887415697
1380, 19.434791137177058
1381, 14.2314360173159
1382, -0.04016803867784802
1383, 2.766904758624719
1384, 16.685000963397215
1385, 33.720326079442884
1386, 46.38366904968666
1387, 45.77804688825313
1388, 21.692335480302177
1389, 7.482502321937659
1390, 10.407136498374939
1391, 12.652456154704396
1392, 24.359377884948003
1393, 49.3519121725617
1394, 71.48329159388618
1395, 83.31259535765571
1396, 79.19439132636296
1397, 72.16668189830523
1398, 67.35244311256349
1399, 67.35785616367173
1400, 75.2007888087993
1401, 89.53672778548537
1402, 96.60635339719738
1403, 102.55518412591732
1404, 114.72422727887772
1405, 123.93872724314099
1406, 121.64927312243753
1407, 96.65973338310289
1408, 72.40163965949262
1409, 59.07286299557654
1410, 57.07444024341976
1411, 60.93067000939311
1412, 63.07094277628232
1413, 42.64925202950997
1414, 12.82470435945902
1415, -2.153933509871081
1416, 7.934749866400807
1417, 35.200133506627935
1418, 51.438088963154655
1419, 57.61603147228311
1420, 54.30205464715232
1421, 40.08541235744735
1422, 24.600933792061255
1423, 14.416310486415568
1424, 1.6903154701616359
1425, -6.095099659484731
1426, 1.5993152282914025
1427, 19.28910124124775
1428, 35.264597755739146
1429, 28.984890483959248
1430, 20.912727010951812
1431, 18.100018786280543
1432, 11.311065018068916
1433, 6.090027192664138
1434, 4.586394702617099
1435, -6.453038929457762
1436, -13.75959392887296
1437, -0.8946780868622
1438, 20.346643820379995
1439, 39.11135606385437
1440, 42.270909461720976
1441, 44.755643501999316
1442, 45.290790624064584
1443, 25.816512852268374
1444, 10.759960264684082
1445, 9.29489004524396
1446, 2.394834497878719
1447, 10.644352047675284
1448, 41.620559882510065
1449, 32.72051927479265
1450, 3.272647872526136
1451, -9.883545508974294
1452, -10.201373308786515
1453, -1.124046454722361
1454, 12.585555514732391
1455, 21.235299995505784
1456, 21.612556257482424
1457, 14.757285884262615
1458, 17.430601042208423
1459, 28.318914570050538
1460, 14.697497315438568
1461, 5.847764264600187
1462, 17.23777047314138
1463, 15.144024265711892
1464, 9.600340997094236
1465, 12.901558958287296
1466, 8.892384330060054
1467, 11.160306407057078
1468, 37.150566718223104
1469, 55.38731527500613
1470, 60.03824007092828
1471, 54.91722018213409
1472, 47.99576928443332
1473, 46.14997622949977
1474, 58.33353915150553
1475, 68.98220474272728
1476, 72.49419759158388
1477, 72.68482131572239
1478, 79.93664494461188
1479, 92.04160701414173
1480, 80.67439213065495
1481, 62.03057535913547
1482, 50.19992613746808
1483, 50.329718171665036
1484, 56.38204982748255
1485, 57.783862143812144
1486, 26.66020582173337
1487, -7.674310369822024
1488, -10.011982981721985
1489, 13.324707133107495
1490, 44.03416661416736
1491, 56.4337355672036
1492, 35.81551150941311
1493, 4.037339355085805
1494, -0.22786592007093986
1495, -3.8125927865133917
1496, -7.5725253827068855
1497, 0.5528360653048594
1498, 3.265011179454177
1499, 6.714286284262812
1500, 34.55260323776622
1501, 46.314448057224354
1502, 40.22690951434436
1503, 50.32344577197034
1504, 57.757658864581
1505, 51.44951853773091
1506, 25.8900638428197
1507, -3.9480152107212234
1508, -20.968255274753915
1509, 3.0861510286019893
1510, 43.33058414944378
1511, 71.47829735965433
1512, 47.463851115759326
1513, 12.989003209898897
1514, -4.156684718703559
1515, 1.5948721048305288
1516, 12.66646437026634
1517, 17.728142173287438
1518, 18.575233220854557
1519, 26.079522441057748
1520, 44.19506332291246
1521, 60.50385131623125
1522, 58.924606918675636
1523, 37.13691162530813
1524, 27.32192813102961
1525, 16.678664373064294
1526, 0.13741529234425798
1527, 4.6331304429280635
1528, 15.168583928739054
1529, 20.709911042443878
1530, 31.96594900857326
1531, 27.009790542792985
1532, -1.8654356213975234
1533, -18.142602131226454
1534, -14.980912251058271
1535, 5.533406807480787
1536, 22.422110179086758
1537, 33.24589613270189
1538, 34.85501344921602
1539, 15.1007052194866
1540, 0.20849784065308086
1541, 2.1251023136487674
1542, -0.9637616114663388
1543, -2.3274115039369008
1544, 2.9549640204299976
1545, 13.573487847849833
1546, 17.69343491647544
1547, 10.939639574113471
1548, 0.9443964297364573
1549, -0.33951524296901425
1550, 10.147298230977981
1551, 23.9768238140515
1552, 25.074372026142782
1553, 7.73370470989596
1554, -21.932695938745724
1555, -23.955596117212053
1556, -2.7559743830870502
1557, -7.024178623180205
1558, -20.20601330924103
1559, -35.10648992048277
1560, -49.00567201254921
1561, -44.180014225510945
1562, -26.146460213339424
1563, -14.110059600294449
1564, 1.3355217313833236
1565, 25.6985112910736
1566, 61.88961880206989
1567, 96.8318586222806
1568, 142.33012958665472
1569, 218.04490895505228
1570, 307.62537850414856
1571, 402.6586710859864
1572, 494.1763873460246
1573, 578.0851144264625
1574, 681.9495822454032
1575, 820.6178367456231
1576, 958.2431147555124
1577, 1079.231130097135
1578, 1169.9907417016652
1579, 1209.887738008057
1580, 1225.6037843270292
1581, 1216.1489589175567
1582, 1140.9599103851508
1583, 1045.9887815702327
1584, 941.3190405169842
1585, 808.5967021602789
1586, 672.648915715801
1587, 534.0355146061944
1588, 385.4209360673244
1589, 269.80602933339026
1590, 182.87799527167294
1591, 105.83910667042085
1592, 43.05014365083923
1593, 5.929963863526837
1594, 0.9358674752463685
1595, -0.603872085264129
1596, -5.545634762607733
1597, -16.345508200568588
1598, -32.720114003997196
1599, -30.477741433044457
1600, -10.745675720150984
1601, -2.2089984304271866
1602, 0.6965266050400487
1603, 0.6254712666693649
1604, 0.7047821299424868
1605, 22.84639028680226
1606, 33.0966616948142
1607, -1.4333164745205522
1608, -14.119739252677391
1609, -6.2422346005794225
1610, 12.56256423694333
1611, 32.73493281975118
1612, 21.67678970463828
1613, -12.824584449052736
1614, -12.208879866002917
1615, 2.8463131270793838
1616, 11.82426845904672
1617, -4.472155364320088
1618, -14.790429409107105
1619, -7.959950382918578
1620, 15.050077627407518
1621, 19.13399789564096
1622, 10.4049725574082
1623, 3.2759899514617246
1624, 19.46142266058439
1625, 45.06884759927709
1626, 64.97808281418361
1627, 62.46495267858052
1628, 47.273836788896006
1629, 37.69484443171689
1630, 46.56950280695719
1631, 29.995347367219097
1632, 8.97740717842612
1633, -0.012589014828677136
1634, -15.296021101793372
1635, -13.576881208768441
1636, 4.158106413502196
1637, 12.1991855380885
1638, 37.62179891606479
1639, 53.7236078820215
1640, 24.389408158001515
1641, 0.5051876684900662
1642, -4.690705656090472
1643, 11.145646401818794
1644, 43.7869201467895
1645, 38.922284320885865
1646, 0.5130699068241711
1647, -18.155592759068327
1648, -1.2699387398655517
1649, 25.22192265504316
1650, 25.334186814146506
##END=



