##NAMES=
##LOCALITY=
##RRUFFID=
##CHEMISTRY=
320, -23.415714646700508
321, -20.90798784157232
322, -16.04375269945922
323, -2.5141373916912926
324, 15.6089286944989
325, 30.607516487629255
326, 41.234422810780416
327, 49.38254405526277
328, 54.240380765741975
329, 46.128465674451945
330, 23.10964474723096
331, 11.244659963657796
332, 22.37978418766488
333, 43.35989880775833
334, 53.88880920439624
335, 57.38243511201108
336, 63.4214602261427
337, 68.95706275189059
338, 51.67313145585922
339, 9.888272338215756
340, -14.325490437227927
341, -7.780912071790226
342, 7.532357668625991
343, 14.513957674849735
344, 20.34593977991608
345, 37.61682848554301
346, 58.85739955173631
347, 61.76545156655993
348, 46.27908217021832
349, 32.94902192508016
350, 26.65663121238049
351, 20.96305834121722
352, 12.550683842310718
353, 7.111184099499042
354, 9.123384410777362
355, 14.98287828264074
356, 14.637695821179477
357, 7.578398853677754
358, -5.99634813362627
359, -25.854447882923523
360, -32.37348820869374
361, -19.752693260458727
362, -0.7738659593569537
363, 17.638736430497374
364, 37.18070233324579
365, 55.888457948269206
366, 68.06489417164812
367, 57.80064021799535
368, 29.195660479305843
369, 11.843710926174026
370, 10.914911498817673
371, 13.214360071373449
372, 14.499208752621598
373, 16.352010932649137
374, 20.77444263606958
375, 22.492163808153236
376, 13.749034714564914
377, -0.59509225477359
378, -6.174992735128399
379, -4.124357904911449
380, -3.3377407034331554
381, -4.972416439746667
382, -4.594533484661042
383, -0.6291213993781639
384, 2.105556767557573
385, 0.14130522293180547
386, -3.3345769673906034
387, -4.187054477001766
388, -4.959726135512028
389, -12.598080949204814
390, -25.229365382841024
391, -27.40315276901765
392, -17.779880785398746
393, -8.53127835068608
394, -2.782098767685966
395, 2.262206632331072
396, 8.429563784002312
397, 11.459848870938913
398, 6.47253450342032
399, -2.9913028922956073
400, -8.92070685719682
401, -12.440579760263972
402, -17.820115676633577
403, -24.694580869251695
404, -20.449342581146084
405, -1.7037090731982971
406, 21.322068052812938
407, 45.19640766543853
408, 64.75502996948853
409, 77.23839441980908
410, 77.98753088956164
411, 58.689206792735604
412, 29.063240910972127
413, 24.68638524867856
414, 43.74142524115905
415, 62.63086311285133
416, 72.97038478418835
417, 83.12955012098428
418, 95.922374562394
419, 109.22942190344747
420, 121.73292170561672
421, 135.24886919041182
422, 151.96045238671468
423, 168.29701753897007
424, 176.31676873517245
425, 175.63941825463917
426, 165.90246699503496
427, 148.79499377566117
428, 138.03078951509087
429, 135.6065979118548
430, 122.31722260460629
431, 90.77066779285633
432, 58.38760851047209
433, 43.24986216055095
434, 39.93856075766962
435, 42.92922018599802
436, 47.05682736122981
437, 49.604615265360735
438, 48.686553137160445
439, 36.83599427306581
440, 15.23511147383033
441, 1.7742841717472402
442, -1.6714756421424681
443, -2.68686348817846
444, -4.151030461022856
445, -2.4013228356161562
446, 5.321442821666096
447, 16.991914332180386
448, 30.286323201733467
449, 41.93447508099598
450, 48.527529504992344
451, 49.73556436331182
452, 44.767672052526905
453, 34.37029628974324
454, 24.171271716284537
455, 18.361360260095353
456, 26.77050916592816
457, 53.25970154736933
458, 73.3747141166059
459, 74.896332015187
460, 63.44413410823199
461, 44.54788479700164
462, 18.799085649060544
463, -10.90113851672595
464, -38.919528476903906
465, -43.26958742421357
466, -27.66058340649488
467, -14.290608431017972
468, -5.228973643915197
469, -1.4989451777164504
470, -2.9223531098805324
471, -3.9376501242122686
472, -2.3737573530779628
473, 0.23758865259060258
474, 3.037588314655295
475, 6.7717530223590074
476, 11.670446482230545
477, 13.663755126839533
478, 4.942526750829529
479, -10.097210362892838
480, -18.16541202839926
481, -19.84087198090583
482, -19.41598764907485
483, -16.87050965468825
484, -6.654062103273645
485, 12.713084644783521
486, 24.50632862439761
487, 21.93988789353989
488, 14.281042442350554
489, 7.421695130740773
490, 1.3919147829110443
491, -3.6371810196706065
492, -6.128992248835857
493, -2.793407414763351
494, 2.914695393744296
495, 0.7221311660250649
496, -8.193333628496475
497, -17.276343175398324
498, -25.864518322768163
499, -29.667206683699987
500, -28.385924526342933
501, -26.755350757131964
502, -26.01260485955663
503, -20.696566234577404
504, -7.619551907028836
505, 9.793236178193183
506, 29.60082597771725
507, 42.89919416548855
508, 39.676023982323386
509, 28.445782377342766
510, 28.873139523037025
511, 40.581111063078424
512, 62.132341192801505
513, 96.54909748434238
514, 142.46047523050584
515, 195.62956010480957
516, 219.51829696968161
517, 208.87443439066556
518, 194.7546624471761
519, 186.60868814695914
520, 172.03102369138833
521, 145.17146962759762
522, 114.10790107110643
523, 84.64114874211464
524, 70.22101807720992
525, 75.0027925553286
526, 84.50021535282303
527, 85.97275401297611
528, 81.43120188009107
529, 76.49070571091215
530, 69.15794950237887
531, 50.98618336085838
532, 24.31471073512421
533, 9.285049724730015
534, 5.967083802516754
535, 3.184878004566599
536, -1.377691577312362
537, 0.8490292105734625
538, 13.15365001578084
539, 32.99156628263427
540, 57.03379786274763
541, 67.7481103626842
542, 52.18558049312742
543, 28.942934794790744
544, 21.528643891751926
545, 29.53649954788125
546, 54.287245177588375
547, 84.5982902808546
548, 101.37820395990184
549, 103.25954889657532
550, 88.28471687466936
551, 59.393539688208875
552, 31.1932844846051
553, 9.663264402275672
554, -0.46319189301084407
555, 0.7510430824695504
556, 9.243063575691849
557, 24.23345282151604
558, 35.54935498280247
559, 39.63682390828126
560, 37.74274960011189
561, 30.530141373452352
562, 16.496548393984085
563, -5.488045823436551
564, -21.805864628431664
565, -18.816340585811304
566, -7.20814685325513
567, -2.5217399930625106
568, -0.3885831420602699
569, 7.900225696300367
570, 18.584236715247243
571, 20.141978995605314
572, 12.068942201496611
573, -4.873120365653449
574, -27.251111356572437
575, -36.766805365487926
576, -32.41604961501707
577, -21.922735354359247
578, -6.650083700754294
579, 6.674338803344654
580, 16.975023895527556
581, 22.24057259399524
582, 22.073465692613354
583, 20.47790846458338
584, 19.417974499287084
585, 14.409373375133327
586, 2.4700534020967098
587, -6.564622381168192
588, -4.994596567306871
589, 3.047931144679751
590, 13.126957958492312
591, 21.825084935044288
592, 24.118451541557988
593, 19.432489991231705
594, 6.6993453214172405
595, -5.267105954591898
596, 4.704732620352843
597, 29.69062198743086
598, 36.67319196729477
599, 27.025978790007684
600, 20.227736391660073
601, 17.519034837558138
602, 11.661079249435716
603, 2.6783837137445516
604, 1.1067471617825504
605, 7.83801870449588
606, 8.595214410054723
607, -0.02458346471121331
608, -7.194580894650244
609, -9.833029629032353
610, -11.255562360244767
611, -12.975608827302494
612, -14.385649990677848
613, -15.160145940493749
614, -11.966452189233678
615, -2.04025113530588
616, 13.000362455073628
617, 32.281680760208474
618, 47.40754158022355
619, 50.12550782722883
620, 42.101191023108186
621, 25.780571198552934
622, 7.024264634415886
623, -2.939916285045001
624, -5.37404927055195
625, -1.57807404651885
626, 4.6980338341600145
627, 3.088560252471325
628, -3.3116465250814144
629, -2.5409425271072905
630, 4.709912026355596
631, 12.246357845665443
632, 18.669229029995222
633, 22.940961106872237
634, 24.464090399111228
635, 20.50206972835076
636, 12.355045725909804
637, 14.181478136673832
638, 24.998423653341888
639, 22.914480978532993
640, 4.443640080723526
641, -7.961059922079585
642, -9.370963589014536
643, -3.4524881974011805
644, 8.983365924717873
645, 25.04887844879886
646, 41.75169888131313
647, 45.99479245350085
648, 31.962827431657388
649, 17.14766352146671
650, 11.092054603452198
651, 7.837841225697048
652, 2.559637570373525
653, 0.41638976307422126
654, 5.432314621162732
655, 12.859991102244749
656, 17.58516461383988
657, 18.84113282443286
658, 15.846692684574009
659, 8.696556413025974
660, -2.4970436606363364
661, -10.895162966582575
662, -7.680111377304456
663, 1.3527840022961755
664, 7.51777661660617
665, 11.917604536874933
666, 14.849928877169077
667, 17.54052585804766
668, 22.375168375647263
669, 27.79127112392416
670, 30.186838429572163
671, 27.99517375571304
672, 17.673738985794444
673, 3.336680048373637
674, -2.9668930306133916
675, -2.7089941462018032
676, -0.43827133948070696
677, 2.1477415226745507
678, -0.07588564317666169
679, -5.735592957724293
680, -7.946316117445349
681, -6.110909457458547
682, 0.47219103367660864
683, 11.227538916674348
684, 20.425667682901803
685, 26.01481680125471
686, 21.355064437047986
687, 7.791884452325576
688, -2.2821781947350246
689, -7.660997362069793
690, -5.839580313870101
691, 2.423158946661715
692, 9.19232414632279
693, 14.252460900560436
694, 22.151320644305088
695, 32.162926373872324
696, 43.9601644725808
697, 55.775944491570954
698, 54.49054309504481
699, 39.02272951994928
700, 23.18034713003908
701, 10.493787354073902
702, 6.073410119390246
703, 9.317972080592881
704, 10.16449628992632
705, 5.512556666392811
706, -0.3117161894497258
707, -6.489296829961859
708, -9.094939024658743
709, -6.671534884208086
710, 6.611257865926746
711, 31.51036939459391
712, 43.21370211349313
713, 36.56573843086244
714, 31.599054175796482
715, 32.96153956369926
716, 26.284185281503596
717, 9.196980200419603
718, 6.451551609263333
719, 22.62305484954595
720, 27.015631619548003
721, 12.375052452655837
722, 5.025190861474584
723, 11.089812227331095
724, 19.740922777468768
725, 26.412130218783204
726, 32.1819626202132
727, 36.2925920772841
728, 24.483540164968872
729, -5.034567570947729
730, -19.07082465260737
731, -10.46792899155389
732, -0.57486101860286
733, 4.9645146169868895
734, 7.805214427724422
735, 7.857016430070871
736, 6.056660262236619
737, 2.7818454696289336
738, -0.48641416300233686
739, -3.692827159198714
740, -6.724627657504243
741, -10.066835604018706
742, -17.246453524408935
743, -27.789785972287063
744, -22.134978044275158
745, 2.8002244727676953
746, 22.681726927256022
747, 31.811139348182223
748, 41.34576570440095
749, 52.578204038761214
750, 54.133824488812024
751, 44.83563105836038
752, 35.587239525222685
753, 28.579201635287063
754, 22.816827075859692
755, 17.940186279827685
756, 12.859969703287788
757, 8.744836353798746
758, 5.733949994427348
759, 2.540996991013344
760, -7.450185811740084
761, -21.5796112972057
762, -16.158553660667167
763, 7.7306244919655
764, 26.063050319796275
765, 34.393702307118474
766, 32.27252412582857
767, 21.443129053751363
768, 9.355971223145389
769, 1.7834725377615541
770, 13.180595623131012
771, 37.21424769213718
772, 41.77737615294427
773, 30.341695619874372
774, 21.86779080321685
775, 16.344181114955063
776, 9.860284106097424
777, 3.907069870190753
778, -0.21316903878960147
779, -3.1997424147002675
780, -6.22875301021304
781, -7.5741555829908975
782, -3.1229134631275883
783, 5.712910357619876
784, 16.175077451915058
785, 26.75261638973734
786, 36.04596795210182
787, 39.602581977508635
788, 31.077804517264667
789, 19.113593040757223
790, 14.573797034884592
791, 13.618747244947372
792, 10.3937219601803
793, 12.15631290283909
794, 26.068193222050468
795, 41.117740221207896
796, 49.4984516888253
797, 47.39142937428278
798, 32.3504165659715
799, 13.774486658299793
800, -1.28839490628161
801, -8.524661064823704
802, -5.66073652581963
803, 9.235317063693401
804, 36.859244012064664
805, 49.357654947853916
806, 38.07060975207878
807, 20.203343658678023
808, 2.365918157530359
809, -2.63401642176359
810, 6.0483249717071885
811, 13.017372012916894
812, 14.40165100712693
813, 12.386815905260846
814, 7.668482676583153
815, 2.602004407649474
816, -1.7784718868042546
817, -0.18758098688613245
818, 8.286226530924978
819, 24.780739389203518
820, 41.86704740021651
821, 39.82191307287212
822, 24.871729499038338
823, 15.511239981786275
824, 9.18831484958082
825, -0.03196355462932843
826, -6.154855307613616
827, 1.904565443978754
828, 13.80283759836857
829, 14.324643828322223
830, 9.985141684317568
831, 7.708964094685143
832, 3.112794597861466
833, -6.996395917128211
834, -12.704059395883633
835, -7.723907823251466
836, -3.8733806615337016
837, -6.817583753791951
838, -7.800487656704718
839, -3.682443646347565
840, -2.1229028215593644
841, -4.345470796648442
842, 2.8121386686143524
843, 21.039328730975285
844, 31.152675090590492
845, 30.715915089822374
846, 27.623979320777835
847, 22.799754683641368
848, 14.974903223200272
849, 4.9897726612589395
850, -3.4162631071067153
851, -9.031224565060256
852, -7.818548199431461
853, -2.1716115094386623
854, 3.037484579061129
855, 7.703004693076764
856, 11.56235104042571
857, 15.57609787272304
858, 21.73227289080296
859, 28.231202949588805
860, 33.460697593596706
861, 30.106282071771602
862, 14.023455195298084
863, 0.42873979647265514
864, -3.6538641801416816
865, -3.73291553708259
866, -1.8937822336019963
867, -0.4394370568297745
868, -0.2690908786789805
869, -4.053680928669564
870, -9.64514774471263
871, -1.775791052027671
872, 18.429309234563334
873, 35.47046274373679
874, 45.52803863174904
875, 42.165137758583114
876, 27.82030128213046
877, 8.280028616636628
878, -5.792307248964789
879, -1.2715252913330914
880, 13.514770236559343
881, 30.427034294518307
882, 40.90655562163647
883, 39.75141044967313
884, 37.39439474095889
885, 39.29661157727969
886, 41.502591560221845
887, 42.411331956244794
888, 41.49492853845277
889, 38.01726789757595
890, 27.72041648007962
891, 11.97810313190621
892, 2.898469362990909
893, 0.4546394414601309
894, 2.392330959456558
895, 7.020030730556755
896, 10.615317610548118
897, 11.319383774847665
898, 7.463270805907996
899, -0.6565181574178496
900, -14.311736201468193
901, -20.851466261972746
902, -9.90345292551683
903, 10.414365932874716
904, 36.48413048306338
905, 56.2046822609982
906, 65.41509529401719
907, 65.06741875422995
908, 55.574202294304996
909, 37.95974253482473
910, 16.13121294720804
911, 7.447610306563547
912, 10.205480351331062
913, 17.212871354166055
914, 24.684124533519025
915, 28.099836118502026
916, 23.801141752003787
917, 7.124731313188022
918, -7.805588222499864
919, -11.098690221030665
920, -8.457068118134885
921, -3.019768276967625
922, -1.1679470482295073
923, -4.1925224743336
924, -1.0073405898592682
925, 10.302789994457271
926, 23.28339814998799
927, 34.08868945288668
928, 36.78038013736386
929, 31.263116273957166
930, 18.70598063522175
931, 7.579366208577994
932, 12.393649266727152
933, 20.950858027945287
934, 18.715337211402584
935, 13.815639819446915
936, 11.493962094941708
937, 10.176777319951725
938, 10.354337240779387
939, 13.589203285371696
940, 18.74571036161342
941, 22.57074263562663
942, 22.574544753603732
943, 11.384555645685396
944, -5.0601838559077805
945, -10.990974527757317
946, -6.962868484178216
947, 6.334722070802854
948, 18.86555109921119
949, 19.25831257469872
950, 11.81779727328103
951, -0.3284658887796468
952, -6.2766107497100165
953, -3.0154061343837384
954, 5.931622330043865
955, 19.02315997981077
956, 28.030867371415297
957, 32.04630893770445
958, 31.443384518047424
959, 27.92487648207407
960, 24.6535241091633
961, 16.847502767951482
962, -0.831563299156187
963, -6.196619472481871
964, 13.572576650245537
965, 23.783134200190034
966, 12.449733809177815
967, 4.137933774486555
968, 2.788081951322056
969, -5.53988000168556
970, -16.77932114253872
971, -10.698114513103064
972, 2.8872800567987724
973, 2.8468553190950843
974, -0.16346054185305547
975, 5.907941664845566
976, 19.275899160834342
977, 36.85541799009661
978, 40.314716865141236
979, 24.740931454130077
980, 7.100860156399904
981, -7.503927657077838
982, -17.85372840207583
983, -19.832714138085066
984, -0.9137915343681016
985, 23.66560508861221
986, 26.362907227448886
987, 28.213157852910626
988, 49.94348730238744
989, 68.99657055418993
990, 75.90132598444143
991, 74.31721194334114
992, 64.80968440343531
993, 44.529598769108816
994, 18.746255307976753
995, 7.777540238840629
996, 10.156570601439853
997, 22.83249148761479
998, 34.38743594727839
999, 34.20620122421133
1000, 24.642558035871843
1001, 7.730227286134323
1002, -5.875620007060206
1003, -13.04658511807429
1004, -6.208724952519333
1005, 11.052927102507056
1006, 19.645211962510984
1007, 19.036881895454826
1008, 11.400778804432775
1009, 3.2701866042934853
1010, 1.7371701094562013
1011, 3.632627759375282
1012, 7.483607900310744
1013, 14.145927146695612
1014, 21.01762697493723
1015, 16.059131439598787
1016, 5.905883400799667
1017, 18.704256412268023
1018, 39.32900702662164
1019, 38.62483594766536
1020, 31.15522833896557
1021, 30.292396933547934
1022, 19.41983711902003
1023, -6.191710066033465
1024, -11.98380866731759
1025, 2.7170612130275913
1026, 0.0704974231603046
1027, -12.133970621711796
1028, -0.8222446102868162
1029, 19.158851266492093
1030, 23.518028006858913
1031, 27.494596803547665
1032, 40.5472813824108
1033, 40.461880187042425
1034, 22.160287080060243
1035, 7.506272593513586
1036, 0.6114015554694561
1037, -2.114017713991416
1038, -0.2058058428365257
1039, 8.320820991981691
1040, 19.682569642696762
1041, 28.688436417544835
1042, 32.84538608250614
1043, 31.930825183953402
1044, 34.609083280906816
1045, 39.21034337326364
1046, 29.758842129107506
1047, 10.827600699704362
1048, -2.6058174567219794
1049, -11.46394969126186
1050, -16.70381270158623
1051, -18.762614468878837
1052, -17.779604973284222
1053, -13.43895206772413
1054, -6.47531816259152
1055, -2.0034549400324977
1056, -1.21469975581158
1057, -6.141814352729398
1058, -13.11043396685136
1059, -17.838632746323583
1060, -22.58161631944222
1061, -27.969505768013278
1062, -24.85970407629975
1063, -12.35664211547737
1064, 0.54978036158127
1065, 9.988979532981375
1066, 7.9273698986935415
1067, 5.118728491642287
1068, 14.382578679351354
1069, 45.12271863830438
1070, 102.934096863582
1071, 172.91016139483554
1072, 237.43737928742712
1073, 288.4598644086982
1074, 331.69850865554554
1075, 381.1805523031071
1076, 424.5769248354104
1077, 449.2164330530695
1078, 453.73843469598114
1079, 438.51001531290876
1080, 411.7373824943015
1081, 375.8386485339797
1082, 332.9596174307344
1083, 284.39132396361765
1084, 232.0137468490425
1085, 171.84378165899216
1086, 101.82815720696863
1087, 50.71306195038551
1088, 18.94907102904017
1089, -3.990949397716122
1090, -17.412067958607167
1091, -11.165501966957436
1092, -3.10771058099499
1093, -16.209142039112976
1094, -24.956878071159736
1095, -16.54674970526321
1096, -4.245422585595861
1097, 7.661639036352881
1098, 12.148012199746518
1099, 7.961067075951178
1100, -5.733035528508481
1101, -18.50531955430006
1102, -22.49089749667428
1103, -16.511368228958872
1104, -3.0751645997270316
1105, -2.7102247415368765
1106, -10.559071844556911
1107, -5.524477090804339
1108, 1.993214411545523
1109, -1.0613694312078223
1110, -0.27753235879845306
1111, 9.42353038872534
1112, 9.208032727457976
1113, 0.4696273447962085
1114, 2.277506550920407
1115, 6.133683420887337
1116, -3.45261418373957
1117, -5.019377796500066
1118, 12.207863909971366
1119, 15.186477954895508
1120, 2.4846662691547863
1121, 7.80091497202784
1122, 22.18483206124438
1123, 20.6819586721208
1124, 11.583476223456728
1125, 1.621230997985549
1126, -8.329041599358789
1127, -15.959317335342803
1128, -7.083710299329596
1129, 14.178896037536106
1130, 35.310886261707765
1131, 47.20334717540845
1132, 44.76633711411796
1133, 47.42227698561419
1134, 58.36480108188425
1135, 56.80144778554086
1136, 44.10355914117554
1137, 30.22357395717472
1138, 19.328887693752222
1139, 16.989394540012654
1140, 26.279181982018144
1141, 43.25364355407055
1142, 48.68626134187798
1143, 39.44463347457577
1144, 15.077560546067616
1145, -3.301923843379427
1146, -0.5034631712483133
1147, 10.330300815914143
1148, 24.212262595434368
1149, 34.3845530934459
1150, 36.28404674071771
1151, 21.91944548425363
1152, 4.3536784683378755
1153, -5.070357724835048
1154, -12.401956855437675
1155, -18.882696364495587
1156, -19.235185800496765
1157, -14.60131300969124
1158, -8.128667067265724
1159, 1.0835274457140258
1160, 14.197239251728206
1161, 32.36207150009295
1162, 51.523293354293855
1163, 61.23872292516808
1164, 57.87332425764134
1165, 37.50299403359895
1166, 13.4043323879946
1167, -4.073808973256291
1168, -8.450103246432718
1169, -0.6527707604236639
1170, 12.019063387650021
1171, 23.21127609496125
1172, 23.153015216737458
1173, 24.416067485553867
1174, 30.442162350092076
1175, 24.16726999290495
1176, 8.885870084347971
1177, 1.3818649975914923
1178, -3.8838053254353326
1179, -10.776410766131903
1180, 9.469794117592755
1181, 56.457564417408776
1182, 69.80826151920655
1183, 59.04546435944758
1184, 54.171183894646674
1185, 41.44657049925718
1186, 14.138033353060564
1187, -3.7933297758431763
1188, -10.223060569956033
1189, -10.811939950912802
1190, -5.561352344185707
1191, 6.302871128116294
1192, 19.984746909397472
1193, 29.610751791947223
1194, 20.269768468793245
1195, -0.6896868271128369
1196, -13.717386610967878
1197, -16.074862571324047
1198, -6.919690733890093
1199, -0.09396026842387073
1200, 6.696394293828234
1201, 32.56448525663063
1202, 59.56495839236504
1203, 65.75011732158418
1204, 74.29386835672858
1205, 88.72474302657884
1206, 74.3823530650925
1207, 45.92145950368649
1208, 41.64815133990123
1209, 36.57274963021018
1210, 16.167745583292344
1211, 7.023193099813852
1212, 10.532971364759305
1213, 16.13805538001816
1214, 26.7389611292906
1215, 42.78443204545829
1216, 45.67691399113346
1217, 31.029454984199674
1218, 8.871152281726154
1219, -9.307448766098787
1220, -11.033113206165126
1221, -8.255018647847464
1222, -6.347797849170092
1223, -1.957121088123131
1224, 5.311233062574502
1225, 14.853978341858237
1226, 25.23588506370743
1227, 34.165709884965054
1228, 25.459745422991546
1229, 2.372227536902301
1230, -13.311961368328866
1231, -21.845980380215224
1232, -23.944756367935497
1233, -16.42065322888493
1234, -1.6854021038657265
1235, 5.022503366395085
1236, 9.436046471689679
1237, 20.501077214482848
1238, 26.204111043087323
1239, 23.161026851877978
1240, 18.367507237775953
1241, 13.364736140124023
1242, 10.622518843539638
1243, 16.72056467549237
1244, 33.572788934057826
1245, 44.61646724688717
1246, 49.59962402197152
1247, 53.329716586410086
1248, 51.25979910307615
1249, 42.637620330088794
1250, 45.30598152065568
1251, 52.90279309874859
1252, 41.01591170924348
1253, 31.77689597013068
1254, 43.40534246233028
1255, 49.158959545945436
1256, 48.917109281726425
1257, 58.3573175538927
1258, 63.91611490076957
1259, 54.13434629994617
1260, 39.688953482237594
1261, 24.161678959666006
1262, 11.842877525164567
1263, 13.394087845406375
1264, 37.689382144042156
1265, 53.29157612994777
1266, 57.152335189994574
1267, 68.49999330627497
1268, 70.78648926243704
1269, 48.960856493687515
1270, 44.04346751705998
1271, 55.99358852988962
1272, 41.99867580595401
1273, 26.351598007938264
1274, 38.0248505709319
1275, 44.07609817576122
1276, 38.85149676429501
1277, 35.37320502569446
1278, 30.60546260690262
1279, 20.537597083919536
1280, 6.887902524986657
1281, -4.646428765870496
1282, -0.8406467781437641
1283, 3.054626460833333
1284, -6.3856024446076844
1285, -2.246224364005684
1286, 15.067777391765958
1287, 18.893320096791285
1288, 13.752572642562882
1289, 5.370545760660207
1290, -4.4853766790547525
1291, -9.194586910109138
1292, 10.497700833029285
1293, 31.827461639239573
1294, 33.623273140703986
1295, 17.27687758138927
1296, -7.113670844088119
1297, -16.85688593299983
1298, -6.582377663340139
1299, 23.373677278621017
1300, 37.62606779233238
1301, 35.29236665213557
1302, 29.15339920181532
1303, 18.76967798699252
1304, 5.881754837452718
1305, 3.8437673183489096
1306, 8.247170336526779
1307, 9.325615502404617
1308, 12.876029245347581
1309, 17.28104417527038
1310, 1.0004123299513594
1311, -18.91815622557624
1312, -19.303534834647962
1313, -10.081057058248462
1314, 2.4556856152394175
1315, 6.939545149553396
1316, 7.956092481827909
1317, 10.903461089621032
1318, 11.252938595337127
1319, 6.707552541495261
1320, -4.739851435274431
1321, -10.487784107770494
1322, -1.8169248157842048
1323, 17.973700202078817
1324, 38.64804207191855
1325, 41.718270279891385
1326, 27.308926733277985
1327, 1.6850732047332713
1328, -5.805113182745117
1329, 0.47992339402298967
1330, 11.082319983374418
1331, 28.082418911817513
1332, 44.44464098887556
1333, 39.229258168797514
1334, 30.07822086617216
1335, 31.613580149197787
1336, 21.757342850303303
1337, 4.117211799836696
1338, -1.3281209775632306
1339, -7.711347665421272
1340, -17.289417278731435
1341, 1.260091133599417
1342, 30.278423652875972
1343, 36.017884937687086
1344, 41.334403480449055
1345, 52.154100154735715
1346, 59.92599546726524
1347, 54.535948093397565
1348, 30.092250410799352
1349, 4.922223206717717
1350, -11.18914803332973
1351, -9.413753799361984
1352, 6.854760860484475
1353, 29.19637043166358
1354, 19.80754101503362
1355, 2.1293192373977945
1356, 8.291886202424394
1357, 18.930225318310022
1358, 29.143765228908705
1359, 43.80425979996835
1360, 36.87234533821402
1361, 1.7927609814742027
1362, 1.036066195670628
1363, 15.222229719433471
1364, 2.7218636914612944
1365, 3.777799178687019
1366, 20.284786135198374
1367, 11.79584418064087
1368, 4.705717503311462
1369, 16.545437507140377
1370, 10.305854533139609
1371, -2.5689153955136135
1372, 7.467670196074323
1373, 20.22517056659126
1374, 26.109710049304795
1375, 24.493904118647606
1376, 16.04069820777613
1377, 3.5841285647197765
1378, 3.9398290322078537
1379, 12.749913488996754
1380, 15.956277620184665
1381, 4.221168720813694
1382, -16.344448466732047
1383, -16.350210545113896
1384, 3.5953496354786694
1385, 37.84238699105117
1386, 50.42485221909919
1387, 41.625998035337034
1388, 23.438870476497414
1389, 6.169872876177578
1390, -2.19225059865812
1391, 8.263096574001338
1392, 14.081090662906718
1393, 2.4721085941941965
1394, 7.515784403135967
1395, 17.34204361384991
1396, 9.02194399101927
1397, 17.712615743329934
1398, 39.38459655931001
1399, 39.00740468221784
1400, 28.695136237590305
1401, 15.489453939064788
1402, -4.377445124772748
1403, -14.752280809409058
1404, -1.4940772932181972
1405, 9.933609390861875
1406, 14.985071686480751
1407, 16.90998969532484
1408, 11.819077108237707
1409, 1.2264972324451264
1410, -4.078630265419633
1411, -2.8482645012409193
1412, 3.9785262409855022
1413, 6.745981836463216
1414, 12.161713346447414
1415, 27.926371493173974
1416, 25.68285922670111
1417, 10.749486095489374
1418, 13.865629828841975
1419, 13.480170131463638
1420, 6.420864182140576
1421, 19.929174510536996
1422, 21.45654700159548
1423, -7.937726908709919
1424, -15.02540209084873
1425, -5.280028397544811
1426, 3.4078821343473464
1427, 18.199322501656297
1428, 32.854253555987725
1429, 30.433610115456304
1430, 12.313042556312212
1431, -10.878391893224943
1432, -6.971729426978982
1433, 0.31544773996756703
1434, -3.0478859452309734
1435, 8.231851882430874
1436, 17.600558255104715
1437, 3.5152724256658985
1438, 7.701945295643327
1439, 25.8683005127491
1440, 31.278386800339376
1441, 37.51133545440052
1442, 45.54450419035493
1443, 43.80998774456293
1444, 25.8742508552059
1445, -3.4175510209165623
1446, -12.3664017557021
1447, 0.3797141823142738
1448, 30.018531169299877
1449, 45.17758920927008
1450, 38.188665816454886
1451, 9.551585307467576
1452, -6.571385673492387
1453, -3.7255923406069087
1454, 17.042671066114508
1455, 41.522627605426806
1456, 58.64966104159248
1457, 59.775323666940494
1458, 56.04390136673328
1459, 49.41004798594395
1460, 27.069812562760035
1461, 1.5755300831906425
1462, -15.144247025268214
1463, -12.784690600006797
1464, -1.8436396264578434
1465, 8.071538210409926
1466, 24.21640987315459
1467, 31.72641058291447
1468, 14.382151439107474
1469, 8.380264937368793
1470, 9.121087229103978
1471, -6.46252119412793
1472, -5.188688649330743
1473, 15.090431849526794
1474, 34.29372087197953
1475, 47.60625900300283
1476, 51.522090249393386
1477, 39.2860915891315
1478, 26.425263448303212
1479, 19.56524019435983
1480, 11.037265658805609
1481, 6.52423673923704
1482, 9.191681410639376
1483, 19.156820058197354
1484, 27.79452868336284
1485, 26.656068517304448
1486, 5.324556899886375
1487, -9.468872147153888
1488, 5.836429653543291
1489, 13.806904986312475
1490, 10.950211952501377
1491, 3.7258965104151684
1492, -8.768996839100964
1493, -13.043288425574701
1494, 10.894149217136146
1495, 22.048088522176386
1496, 15.44298348603661
1497, 5.252143363662981
1498, -1.5693359266228981
1499, -5.4024842180861015
1500, -9.837735038595383
1501, -3.9281430016226295
1502, 7.4975226023939285
1503, 1.6240205563872223
1504, 3.3452897403522
1505, 16.020926368684286
1506, 17.499360505933055
1507, 20.734083797292897
1508, 27.391800742671876
1509, 21.701516927381817
1510, 12.486195477466936
1511, 4.8805825375793574
1512, -1.2252673306570614
1513, -8.813106526964475
1514, -14.573832700271396
1515, 0.09078869369341191
1516, 17.077818170894716
1517, 22.824772819370082
1518, 16.162253173279623
1519, 4.883210734427394
1520, -2.877923185250438
1521, 1.925239837094523
1522, 16.19829375935842
1523, 33.45888831324601
1524, 40.66916615327227
1525, 38.18047934528704
1526, 26.10812879305695
1527, -0.1276313658199797
1528, -9.906431916088422
1529, 6.897418630262564
1530, 5.200147639134229
1531, 2.555360459473377
1532, 8.797696401088615
1533, -2.2201301445002173
1534, 6.579039030962122
1535, 44.77612835191303
1536, 32.59661802068558
1537, 7.014365884854669
1538, -3.6497414915424997
1539, -12.935273285397216
1540, -16.34507690238388
1541, -12.016052860732088
1542, -7.520245820292075
1543, -2.6106545314423784
1544, 3.3159921260989904
1545, 9.903931719824413
1546, 9.636255402012921
1547, 3.15041986872302
1548, 5.6403792634564525
1549, 6.395952453019163
1550, 2.36993528010953
1551, 2.4889850738150017
1552, 4.39466911664158
1553, 4.479109680157308
1554, -1.2935402218754462
1555, 4.267624630515456
1556, 19.830987680103135
1557, 22.846196831310863
1558, 19.353359188777176
1559, 9.881577391772225
1560, -7.972522877240863
1561, -8.317929613132947
1562, -2.6373841938107034
1563, -22.858643670760102
1564, -32.14246262004326
1565, -29.03341345439958
1566, -24.96497087913167
1567, -8.453249306532598
1568, 0.6177272909949352
1569, -18.86546278742253
1570, -9.934753785679277
1571, 18.912117073808076
1572, 46.68477068184575
1573, 56.71395460465328
1574, 47.33276236705251
1575, 37.424764680823046
1576, 85.21254622967399
1577, 158.9789290460817
1578, 217.78670591874607
1579, 247.54332071176077
1580, 258.95808010625433
1581, 264.211242183128
1582, 279.1007713153399
1583, 289.7590363551917
1584, 288.7217024195779
1585, 272.58923148165786
1586, 237.80073772385504
1587, 188.52131189201737
1588, 133.5671050259498
1589, 75.08236970750295
1590, 30.970177556068847
1591, 8.187940599922058
1592, -0.15869691354691895
1593, 3.1074998140079515
1594, 10.558162036952126
1595, -6.63446929253314
1596, -14.677254115054438
1597, -0.8177900894338563
1598, 0.12548715885623096
1599, -2.6370176546652146
1600, -12.05372278676441
1601, -43.935793642260705
1602, -39.38898383827154
1603, -6.19992305718506
1604, 12.611186141432427
1605, 37.78693160580906
1606, 53.49660782051342
1607, 41.654220312042526
1608, 24.169658769053058
1609, 4.737277598383571
1610, -9.861927150237989
1611, 1.168881863032766
1612, 18.932988618861145
1613, 30.155834484517072
1614, 30.63701235652252
1615, 22.69363250649849
1616, 13.943506837902987
1617, 13.653022374611282
1618, 2.973036133666028
1619, -7.142986936948091
1620, -3.8084112913174977
1621, -0.1686244725638062
1622, 5.71684071557047
1623, 14.344991061076144
1624, 17.00307907694878
1625, 13.119148925776244
1626, 5.456504762067198
1627, 0.525320650473077
1628, 0.5828837893468517
1629, 3.0901300210302907
1630, 6.353865993185991
1631, 24.575818329863978
1632, 42.2697458198345
1633, 47.90475625756608
1634, 47.11761408159191
1635, 27.90051082315813
1636, 0.27849269312991964
1637, -3.03639376995352
1638, -3.179750946903823
1639, -5.0417383405265355
1640, -6.706485020784385
1641, -6.219343290182223
1642, 5.32797842242644
1643, 28.33470456322084
1644, 38.79220821097351
1645, 21.172299434224897
1646, -10.312239148708159
1647, -18.675133594340878
1648, -7.487617086269893
1649, 9.82109292235873
1650, 15.851086064023548
##END=



