##NAMES=
##LOCALITY=
##RRUFFID=
##CHEMISTRY=
320, -13.711035127153082
321, -20.298914938431608
322, -22.148855254428327
323, -11.420308123590075
324, 3.717689376182534
325, 8.549308023472804
326, 6.110399022581078
327, 11.310508478635711
328, 22.981248279821557
329, 21.99391585003832
330, 4.057527144500455
331, -5.441837952354945
332, 6.251444945372896
333, 26.941980439755753
334, 39.088060053181835
335, 43.58339370708927
336, 43.04783459690225
337, 37.6464817543756
338, 27.46405279647297
339, 12.977813766330655
340, 4.2971298855163695
341, 3.9022958068735534
342, 6.394408452721109
343, 7.6128524508094415
344, 7.572632752661775
345, 6.072102552726392
346, 5.417629380272956
347, 15.170552424840935
348, 35.77398788447954
349, 51.60073046362049
350, 59.262835416601774
351, 61.746919178059215
352, 60.59183639265211
353, 58.3388267123355
354, 57.865088961486435
355, 56.65938376716167
356, 48.69142016740989
357, 35.027872307419784
358, 22.38857889616429
359, 14.266356347215151
360, 13.992766447045142
361, 22.692947845622257
362, 29.632912147648312
363, 28.948440276605652
364, 24.979341412813483
365, 23.66676073542658
366, 23.146852270112504
367, 18.115029474110088
368, 10.365065565957593
369, 13.305504096051664
370, 27.792234768954586
371, 29.774409483019554
372, 11.626416207459442
373, -5.933561233974615
374, -9.219957512796555
375, -5.7894630190780845
376, -5.926136241474069
377, -6.104519982345209
378, 4.291800534358117
379, 22.94364561436987
380, 24.964111788862283
381, 7.610057521100771
382, -7.64705919189737
383, -14.209203484935642
384, -16.713267303533485
385, -18.104555030883603
386, -16.9060084214334
387, -10.71321854860389
388, -2.609938717258956
389, -2.0478264087100797
390, -7.103700067747013
391, -4.7301632971566505
392, 6.943773050735217
393, 23.32978612871193
394, 41.805738310729794
395, 53.73277725383332
396, 53.958595780983615
397, 44.3992945831892
398, 27.373132584792074
399, 5.993102239419841
400, -11.869436884479
401, -25.288128091471663
402, -24.783289674695425
403, -10.942353796400766
404, -1.160570735245983
405, 1.022780597596011
406, 2.0825857827921936
407, 5.087476871017316
408, 7.775777107609429
409, 8.083945149909596
410, 9.961367252421041
411, 20.58780438672693
412, 39.41133742953298
413, 58.581780212915874
414, 76.3713918932317
415, 84.60310031997506
416, 81.92531716221856
417, 69.99839557382165
418, 49.49036979068296
419, 28.185103822708697
420, 13.743105064017072
421, 10.845519104115738
422, 26.56543373472232
423, 53.496535513511844
424, 69.00037718757994
425, 73.7371363948705
426, 73.31955085390473
427, 69.16153435076194
428, 67.78811515135294
429, 70.43963029687984
430, 73.80940192894377
431, 76.5454800360094
432, 71.04580644035559
433, 51.96863220016894
434, 27.397571236024305
435, 10.815771803688222
436, -0.47506312648238236
437, -10.202833244118665
438, -17.93525674700004
439, -18.043365428605284
440, -11.059152757326046
441, -6.322560667684684
442, -5.260983290299464
443, -1.858561143910265
444, 6.474427789089532
445, 15.431872021669733
446, 22.422735131071022
447, 30.627906935717874
448, 45.939596738630826
449, 63.363892444582234
450, 71.95356375031633
451, 70.14163215630242
452, 53.479119662841185
453, 24.58347522889835
454, 6.746501788160458
455, 1.948840697666128
456, 7.130516559994248
457, 21.744324766439604
458, 34.26914784989049
459, 38.640769840402754
460, 31.952540749907257
461, 11.344265888252266
462, -10.226982542425503
463, -14.519749760452669
464, -8.009066994355635
465, -8.530892343540017
466, -14.847997978537023
467, -15.523606748115071
468, -9.745583678010462
469, -3.7419123641502665
470, 1.739589658639943
471, 13.369180722457259
472, 33.2498477364129
473, 43.44600681387601
474, 32.058448529949146
475, 13.100037208535468
476, 2.649829514924022
477, -1.2998003827119646
478, -3.5403556193077748
479, -3.9383575540937272
480, -1.0799378236924895
481, 3.8037390776894426
482, 2.802669957474791
483, -3.724749077110573
484, -0.9376850072803791
485, 14.583031285284505
486, 29.340369118368017
487, 37.90489943593366
488, 37.144311110337185
489, 25.06715973602377
490, 9.257460523063855
491, -1.3216876120804955
492, -4.674551685168353
493, 4.1596664754788435
494, 19.569477665837894
495, 23.08432238381829
496, 14.545318874871555
497, -2.2418866395682926
498, -23.95840592313698
499, -30.1426519300544
500, -18.352486515389955
501, -7.784638842333152
502, -3.7452644797217545
503, -0.6309635513857756
504, 4.435967142813752
505, 8.756255255847464
506, 9.392994795190134
507, 8.680724858868416
508, 10.437515240718312
509, 12.74116854901149
510, 11.675135911907091
511, 11.809289080357303
512, 27.525131574157967
513, 58.52100142716699
514, 88.84288042540629
515, 115.41042197691513
516, 127.52127354919321
517, 124.13735786070174
518, 121.18184251451567
519, 123.63858067941419
520, 129.50987716229974
521, 137.78848147052577
522, 139.8940845206762
523, 129.6650510054269
524, 108.39504492195647
525, 77.53542060208929
526, 46.70829019514167
527, 37.01031037164648
528, 41.451398718219025
529, 40.44053727412029
530, 33.43736787647504
531, 21.30530159089176
532, 6.982303808437791
533, -6.868315868875925
534, -19.29373221642163
535, -16.168624282148357
536, 5.158517985653361
537, 25.067424346636017
538, 35.49205423172543
539, 39.5553742354532
540, 38.84678473788017
541, 34.38821981372621
542, 26.934457527408995
543, 18.38214672031154
544, 10.833567715964364
545, 4.930611516240333
546, -0.6369169679228435
547, -5.577338308317849
548, -8.394058340019455
549, -7.7321875329134855
550, 1.5941203273869178
551, 17.35753059687704
552, 22.574403659125892
553, 16.68283118029558
554, 10.88988574373434
555, 7.520361984308238
556, 9.099115103392705
557, 15.85651818825454
558, 18.66747699427333
559, 14.558523808813788
560, 12.805268762068863
561, 19.642765773775864
562, 27.152145023743287
563, 30.34070927888024
564, 27.722272973329382
565, 17.694069500688784
566, 2.8251367252728414
567, -12.69751285190523
568, -24.44119378411051
569, -21.181491873272535
570, -6.229498198882084
571, 10.50323361677738
572, 27.90550062817738
573, 36.85021925965566
574, 37.11511738518038
575, 31.802667259631562
576, 21.491317217838514
577, 7.095756806575082
578, -9.226510391813008
579, -14.745173523150697
580, -6.850981210725422
581, -1.6286638035958276
582, -4.585402274787157
583, -3.298764611362003
584, 8.621094022854322
585, 20.415569955674528
586, 23.261363156007974
587, 23.907239855150692
588, 28.409844521692776
589, 28.68259905730656
590, 14.844835098209387
591, -1.8838938971593961
592, -3.467943583879787
593, 4.559815621066264
594, 11.111128766307047
595, 14.706605123905774
596, 13.59894021450691
597, 11.012973595178664
598, 19.813555037398146
599, 35.20587267061455
600, 35.42030841747328
601, 20.80762631882226
602, 10.029188622461334
603, 6.596078266477889
604, 4.849866964424109
605, 3.8579921911696147
606, 8.375670568173064
607, 18.422907480248796
608, 17.268061111716634
609, -0.4078147732061552
610, -14.533542874393333
611, -17.478650619299515
612, -14.10270178478413
613, -6.716371923411771
614, -2.010188062166435
615, -4.837327083161654
616, -8.536674120887255
617, -7.159159272270244
618, -0.6056489145871637
619, 11.734990015799667
620, 22.874804959094035
621, 22.534192432688997
622, 15.008469429893921
623, 8.196909646457243
624, 4.589225824031473
625, 7.1550025834935695
626, 14.04520209731254
627, 18.565738478932417
628, 19.921320928547175
629, 16.59076469541742
630, 10.937464591200296
631, 13.901355523678376
632, 24.908407246967727
633, 33.43855954615037
634, 36.99220779034158
635, 27.88766297763914
636, 7.410410740819771
637, -4.858966883697576
638, -6.380466499649174
639, 2.3216917408299196
640, 20.837360216607067
641, 34.7630809824027
642, 39.80612505912768
643, 33.23904656787772
644, 14.878447690212852
645, 0.828948512156785
646, -2.424553917947378
647, 1.8109999741436695
648, 12.262579144935444
649, 14.849935611282035
650, 2.1209408175595854
651, -9.003403103910841
652, -8.961601113305278
653, -4.049419856573877
654, 1.5245595493802284
655, 9.678748281679418
656, 22.413357721095963
657, 34.651012727202215
658, 42.205004194599496
659, 45.90120729772252
660, 46.71820164901601
661, 41.32980147776152
662, 25.201260888748948
663, 6.403749904912729
664, -1.8426550819358454
665, -3.222662294338079
666, -3.15657673372516
667, -0.4546585900507125
668, 7.689333649235323
669, 18.943910742589196
670, 25.422242857112906
671, 29.57689234905365
672, 38.09497139661198
673, 43.900188428056936
674, 26.76710727953241
675, -2.383546470140118
676, -7.211566409252555
677, 7.046825471721149
678, 17.57890539777827
679, 23.29166242549536
680, 29.915053457323665
681, 33.89445053251211
682, 18.76940571682144
683, -8.5815625664236
684, -11.060739810056475
685, 9.58077464179678
686, 26.604332502421585
687, 36.332487123768715
688, 44.33818300514258
689, 48.95956026767544
690, 36.16118794505974
691, 9.286162087098546
692, 3.517377529487476
693, 19.658846441812784
694, 27.52888903776966
695, 23.31505955830835
696, 19.104699505995086
697, 16.248187943347602
698, 6.776907919058431
699, -7.491510657899653
700, -4.777112934569232
701, 16.478566084042086
702, 22.657059068211765
703, 8.433889489517696
704, -1.302475011505976
705, -1.419617502901474
706, -0.3120394968077562
707, 0.5985835704486817
708, 7.820618396817736
709, 21.982485290582645
710, 22.562460489681143
711, 6.432417011218149
712, 0.5817806511568051
713, 10.60864843142599
714, 22.307083023301857
715, 29.99580583321176
716, 31.19068066062073
717, 25.681759286619126
718, 20.105485127580323
719, 16.547434778285606
720, 17.73984396978358
721, 22.160152960854248
722, 27.242338450484567
723, 31.496657523999147
724, 25.747688461468442
725, 8.582130128686458
726, -0.4005481514341227
727, 2.4454437179661
728, 0.9542565310794089
729, -9.003749599396087
730, -14.282395169454958
731, -11.324616892959057
732, -2.9357217337360453
733, 10.215532807151703
734, 21.37096177921103
735, 28.087534520028385
736, 26.270818574265377
737, 15.501656347222706
738, 4.762911889152292
739, -2.5497188575582186
740, -3.2072684517670496
741, 2.59548118729208
742, 2.450022248968253
743, -6.0371526891640315
744, -12.57613347141978
745, -14.64043561732933
746, -9.589480526864463
747, 2.761580240197418
748, 14.436608137174971
749, 21.79992695410556
750, 14.990091764472254
751, -4.963875814270523
752, -13.010424594197957
753, -5.849783468501755
754, 7.397058261473376
755, 24.22346879403767
756, 31.26333368012365
757, 26.85523274932484
758, 15.483002620923344
759, 0.572974079510459
760, -2.4342061363313405
761, 6.150545251176027
762, 13.786506334321984
763, 16.95264968100264
764, 11.124861087819227
765, 1.5370355634127009
766, 8.65564577546047
767, 30.414228708842984
768, 43.59830438127892
769, 45.77964981124387
770, 37.00335854744526
771, 20.39193870293775
772, 6.682549020579245
773, -0.9633581042812693
774, 1.6574844450760793
775, 9.746983939521215
776, 7.795176703422385
777, -0.3702194764032356
778, -2.622094991115773
779, -0.09677679730884847
780, 3.9712691978397743
781, 7.255500644472249
782, 4.018090436020884
783, -2.5305874440514344
784, -7.599647517842186
785, -4.549835404527585
786, 18.3527338978829
787, 43.43543568418909
788, 44.52354605900655
789, 32.68330267184092
790, 22.00010382677192
791, 14.088957276997007
792, 12.059317411127267
793, 16.918284746004247
794, 28.531779361174358
795, 32.49492347844489
796, 17.52943362672795
797, 1.033579374193323
798, -5.019064218884068
799, -0.8479125678800301
800, 13.853982484007702
801, 28.159462616529254
802, 34.62918153619239
803, 38.06415352156591
804, 40.187785753798835
805, 34.724386983210024
806, 20.459721940975214
807, 12.190498504457992
808, 14.385682881451885
809, 11.364384333538055
810, 1.3464842095222593
811, 1.2721470568421864
812, 11.546514286722868
813, 10.265979800996774
814, -2.6031492487750256
815, -6.227655788630273
816, -0.7864175773484021
817, 1.3829508963472108
818, 0.707605147502818
819, 3.335249446542093
820, 8.523011813337689
821, 11.273785507479715
822, 12.221705301334623
823, 13.683212957440446
824, 16.26741942368926
825, 20.98824754097768
826, 26.354971476810533
827, 29.868117134040403
828, 26.859048459923542
829, 11.180736845455158
830, -6.1598663954018775
831, -16.449261858220325
832, -16.590759261754556
833, -3.2432483738211886
834, 19.909979877425485
835, 51.41318450291874
836, 69.6086044914232
837, 65.00225584602777
838, 55.901185100316525
839, 49.390414160126056
840, 37.06530449891716
841, 16.930280181683884
842, -1.1134163184296995
843, -15.424591782966218
844, -17.815226605796397
845, -7.0767882115383145
846, 15.011116448963548
847, 43.690144739667176
848, 49.649194576271384
849, 35.912850420303585
850, 22.80941462014198
851, 11.84412621522506
852, 3.967847691848874
853, 2.5528547325830004
854, 15.722485806805707
855, 29.107161998140327
856, 20.902187725758267
857, 8.80341131806199
858, 14.196334412063152
859, 22.62133152883507
860, 22.630468172586916
861, 16.760271590260345
862, 6.693943940088047
863, -4.347996140636042
864, -15.677834203037037
865, -18.563023752041317
866, -10.369466068403653
867, 2.7333482978719985
868, 19.084040806847042
869, 30.581765630912287
870, 35.89176912979792
871, 36.20553987706671
872, 30.37514714627332
873, 13.44347946993048
874, -6.9760508225322155
875, -14.19341758556493
876, -8.874842735861876
877, 7.375056782594129
878, 27.10927365483576
879, 36.0328095099585
880, 36.30011028647641
881, 30.3995871412817
882, 24.541800864816196
883, 23.40602716007197
884, 26.892737543993917
885, 34.34274499491357
886, 33.509128632602824
887, 20.93417613901738
888, 12.121478169703096
889, 11.138904015803291
890, 5.649015544660415
891, -3.5274887059281355
892, -5.168478660747041
893, -0.3228313262229676
894, 2.851304307326245
895, 6.231022846034193
896, 15.722821290530646
897, 23.272644951021903
898, 15.629828476779494
899, 2.3209039997636864
900, -4.775702133622872
901, -6.198488964594617
902, -2.07662674086032
903, 2.8800417358370396
904, 6.266380058730192
905, 6.311549721239317
906, 2.80456517470202
907, -0.22525068339882637
908, -1.8736641023615448
909, -0.9523068427970429
910, 1.9376130448131335
911, 3.134951096385066
912, 5.122990878311157
913, 16.161594431178855
914, 34.2073331557599
915, 50.46761295193437
916, 59.611284900351166
917, 54.83770111286913
918, 37.85911565679544
919, 10.589557085740125
920, -3.7433127862532274
921, 4.928878761166288
922, 17.74247455649038
923, 26.530840007629195
924, 29.775901213664838
925, 26.222847490448657
926, 10.782948300199678
927, -10.763919871221788
928, -19.82640973912521
929, -16.508658210970225
930, -3.388567981049164
931, 18.164545432171053
932, 46.14024556067716
933, 68.34176255699958
934, 74.04713600233845
935, 63.82583576568095
936, 38.72840608774504
937, 14.941194896384332
938, 1.0228857589645486
939, -2.3257146654186727
940, 3.152731126501294
941, 5.730137005230517
942, 3.9259834390145443
943, -1.0215137040922855
944, -6.45179235346086
945, -5.537030365769624
946, 2.8444317529692853
947, 20.61555035158017
948, 38.642987393679505
949, 48.42162393898889
950, 45.90491266005347
951, 29.445564533702964
952, 12.023898594062757
953, -0.11216145540902289
954, -6.133327777886279
955, -6.600374588514114
956, -3.678941653201491
957, 4.34910157427521
958, 23.460655325811786
959, 43.37061578250314
960, 44.84081208966745
961, 30.831692949582703
962, 5.387281148423881
963, -15.802348123368574
964, -24.430151231316813
965, -15.304069002515007
966, 12.177757344020847
967, 33.66031863140097
968, 41.92897076380359
969, 41.216588855219925
970, 34.68665410971789
971, 30.251846198579642
972, 26.141838515431573
973, 17.96371953398375
974, 7.534535247899385
975, -2.1697705054252765
976, -4.28172223494721
977, 5.121021332222426
978, 11.329042022762223
979, 8.993474788104322
980, 7.2576652297120745
981, 6.765438172206359
982, 1.2035765940477177
983, -5.917367317073513
984, -4.357980779422633
985, 1.4649147584923412
986, 4.135824640238297
987, 8.165555594238413
988, 17.62377672041157
989, 28.77091608779574
990, 39.11298993148421
991, 36.299999903973
992, 20.30997188370975
993, 11.652189223040295
994, 13.044564798241026
995, 19.03369661124725
996, 28.103648451448862
997, 40.650711336823406
998, 41.632429253591
999, 16.051950554188352
1000, -7.738292583459952
1001, -14.859119035011645
1002, -11.452111737805353
1003, -1.4853329716352164
1004, -0.2974189869014481
1005, -6.5782548529909946
1006, -6.9213865754109065
1007, -3.058126221398652
1008, -0.1689962462000949
1009, 2.7394461117733044
1010, 6.7501809194614
1011, 7.158269711255343
1012, 2.7776428613788084
1013, 15.290319481560346
1014, 47.24013623375595
1015, 63.07979571190481
1016, 60.49996234746186
1017, 50.25640595386221
1018, 34.07576546572045
1019, 13.589247541643545
1020, 0.2862651360428572
1021, 1.7212392569658732
1022, 5.136265008927694
1023, 5.11979284339759
1024, 7.313785915062454
1025, 12.997497272759574
1026, 19.309797887110562
1027, 22.65218975296557
1028, 14.465010706078829
1029, 1.7568690493744725
1030, -5.0281537341838884
1031, -8.8322748239666
1032, -11.3429205773773
1033, -7.226376470483501
1034, 3.1763092254595904
1035, 0.9517722921946188
1036, -10.943768660642036
1037, -10.77618087945848
1038, -3.1562642545736708
1039, 0.6758901166140276
1040, 4.555351912808874
1041, 12.023704444257874
1042, 15.563225878801404
1043, 12.768870608016186
1044, 11.840477837610251
1045, 13.049779710629537
1046, 9.124589949262827
1047, 1.0535739637671213
1048, -7.11745339289746
1049, -11.115319426509359
1050, -6.16049420683612
1051, -2.9314550923459137
1052, -6.608725362640143
1053, -12.1868307304062
1054, -17.589961033526833
1055, -17.88802464673381
1056, -13.414613960233055
1057, -6.105997605638095
1058, -0.04056736954544249
1059, -0.1847122659055458
1060, -7.819339062995368
1061, -22.636545304615538
1062, -25.876898545349377
1063, -17.02857722390081
1064, -18.432546296764485
1065, -21.085320850213066
1066, 3.2165684121177947
1067, 41.92058987647715
1068, 80.73515763668729
1069, 134.45178687927046
1070, 211.38362236606008
1071, 268.45232997809353
1072, 306.4127212749927
1073, 362.3681117047681
1074, 428.947747957292
1075, 481.5535604992251
1076, 514.338576939218
1077, 522.4888427666019
1078, 511.34376277253614
1079, 485.6896766225309
1080, 464.5814989164005
1081, 447.6811942135232
1082, 418.5947215096571
1083, 371.39601079381555
1084, 298.4305218811446
1085, 208.6512162942422
1086, 110.69378155784443
1087, 43.781388263093504
1088, 8.84472659288167
1089, -13.522044428485515
1090, -25.180707764869112
1091, -19.02844749605174
1092, -8.236563088904859
1093, -9.613824621880212
1094, -12.02308590653547
1095, -10.024590301900844
1096, -10.216063026859501
1097, -12.373061214850622
1098, -8.464450832094826
1099, -3.407595440898149
1100, -8.361641116387545
1101, -15.487484700952791
1102, -17.945493610662197
1103, -7.239166884467977
1104, 16.67763512074407
1105, 29.128985119197296
1106, 27.94927632707413
1107, 18.357073500139904
1108, 7.068842857558593
1109, 2.1715614430322603
1110, -1.3442221872815026
1111, -5.82494949712509
1112, -9.476994479785844
1113, -11.591775848822635
1114, -10.44498029492388
1115, -0.2810162572009176
1116, 27.82112375246379
1117, 40.56358454454585
1118, 19.743171898305718
1119, -1.5059471879922057
1120, -11.287747222022517
1121, 0.7729636104345445
1122, 26.433980702323424
1123, 45.911642510543516
1124, 53.08622426330021
1125, 44.53037689174744
1126, 33.23733102164215
1127, 27.058864454113063
1128, 46.03726949017209
1129, 67.89514649614193
1130, 46.939055580898184
1131, 11.532519676057746
1132, -10.987955908190543
1133, -12.048695109716846
1134, 8.087616705021446
1135, 29.486629706118038
1136, 42.77135904191482
1137, 36.038829771191104
1138, 24.452569952684826
1139, 22.074495715765806
1140, 28.09986174530377
1141, 37.686024470358916
1142, 42.627291754860835
1143, 39.100530978053484
1144, 21.299633582957085
1145, 3.7652180488621525
1146, -0.48611674369431057
1147, -5.08813088829902
1148, -12.42543397802774
1149, -7.472773181295906
1150, 3.431985420689216
1151, 1.7607370966206872
1152, -2.5806522991783822
1153, -1.4531972895683793
1154, -2.1185708452912877
1155, -4.312736035323724
1156, 5.360496039685131
1157, 20.261592356633628
1158, 21.843958398513223
1159, 20.45638124592233
1160, 23.135149357193768
1161, 18.462689168764882
1162, 7.517394708810116
1163, 9.161604446511774
1164, 18.440688836837126
1165, 22.985983717837826
1166, 21.238167683210577
1167, 13.149037556741405
1168, 6.151396059574836
1169, -0.391306308467847
1170, -17.058062915046776
1171, -28.423168679058563
1172, -13.63408118678035
1173, 1.2143156391034609
1174, 7.101334273170323
1175, 22.4586130952066
1176, 38.58780847831713
1177, 27.64528097991206
1178, 15.231900072179997
1179, 26.178768267466694
1180, 32.17766717582481
1181, 26.329012604444415
1182, 20.52917037020279
1183, 22.3765540811105
1184, 39.11489288033772
1185, 56.49457944647702
1186, 64.68670261451916
1187, 44.41261636328272
1188, 2.8811867745316704
1189, -22.237688068116313
1190, -24.398076777536062
1191, 2.188879384400934
1192, 24.269572188431084
1193, 27.531959155267486
1194, 18.578173262395012
1195, 5.173706574544212
1196, 1.5479658486724475
1197, 3.731305030611111
1198, 8.049716661313141
1199, 3.373024304822138
1200, -7.698593678124325
1201, -9.222208678883817
1202, -5.4991860794866625
1203, -2.724387732248033
1204, 3.266021424633891
1205, 13.447673822054185
1206, 20.50009824894505
1207, 23.99910654376845
1208, 25.098473769693555
1209, 18.281528283941043
1210, 2.3149474744759573
1211, -0.13104647922773438
1212, 9.552800299976298
1213, 13.078991354014306
1214, 19.369360502230847
1215, 37.95301471303992
1216, 35.00367992853353
1217, 7.454761656968913
1218, -4.36693354285444
1219, -2.5469713591423897
1220, 4.608779075556868
1221, 18.13421827692582
1222, 33.36263376232546
1223, 21.895891580983516
1224, -4.7051218350034105
1225, -10.826486078370635
1226, -3.825356483710948
1227, 9.522074250505739
1228, 12.890721316596682
1229, 5.358357622862513
1230, -2.892921789684806
1231, -7.620903597476172
1232, -5.193495073673148
1233, -0.020183794001695787
1234, 5.435489353325465
1235, 6.207513315487631
1236, 9.257331426110795
1237, 24.265408447845402
1238, 37.70481158148277
1239, 44.622352684253656
1240, 47.460708681238884
1241, 47.79076994681009
1242, 47.49467279499413
1243, 37.91005774732139
1244, 16.20982796789349
1245, -4.463404589058882
1246, -18.537061535173507
1247, -15.915722475310304
1248, 3.361667538566053
1249, 37.21894260408544
1250, 57.04889686521301
1251, 57.45591595494807
1252, 40.09719332028135
1253, 27.4656710225413
1254, 36.88455253367647
1255, 43.2857109244278
1256, 42.97252783926706
1257, 40.9950976941318
1258, 38.38840430363098
1259, 36.17780588102869
1260, 38.63347623534764
1261, 42.17791785929785
1262, 32.429797145035536
1263, 21.892241127217858
1264, 24.77379572053769
1265, 32.13280749795695
1266, 37.722485408453394
1267, 38.30820592674763
1268, 40.04705817672766
1269, 48.72027302786364
1270, 55.47752164291023
1271, 54.27717340530444
1272, 34.22863387219513
1273, 8.683012958672862
1274, -6.356188885791653
1275, -5.9830416268982844
1276, 6.207363062767854
1277, 12.633764682092078
1278, 11.484344537723246
1279, 3.845146384416239
1280, 0.20802056939510294
1281, 2.6177497524854516
1282, 9.03009818250257
1283, 9.77803156706159
1284, -2.460872162077976
1285, -8.868686213028013
1286, -6.543861292078418
1287, -1.3264204232386874
1288, 3.2895175245416794
1289, 4.343101929529439
1290, 2.8528207970439325
1291, 0.08790152063056667
1292, -2.2848830508751234
1293, -3.3807535218311386
1294, -1.8092645459746564
1295, 8.83473687216474
1296, 23.54848532967344
1297, 26.470480788868826
1298, 21.24588345338225
1299, 11.077777093302757
1300, -2.0090654761288533
1301, -11.738052917213736
1302, -7.019938048661061
1303, -1.373581663448931
1304, -0.18564238214639772
1305, 9.116603517241401
1306, 21.624786091503665
1307, 23.775756157253
1308, 27.786337784042644
1309, 37.16463714571819
1310, 41.941201547394485
1311, 42.323818150005536
1312, 39.919638168734764
1313, 29.96315325550404
1314, 14.365378733110447
1315, 7.313650018873432
1316, -0.2852377184085526
1317, -16.266273695202926
1318, -17.717968385451513
1319, -5.362530545946811
1320, 2.7584024973266423
1321, 9.850692667775093
1322, 18.607230009011346
1323, 24.816228645637693
1324, 28.731090286030394
1325, 31.812186331657358
1326, 23.9811369668505
1327, 3.891033759199672
1328, -9.43633480716062
1329, -13.504237476224716
1330, -7.711471262643499
1331, -4.841307713521928
1332, -6.23523397946974
1333, -1.5909542506697107
1334, 9.601834209602657
1335, 26.897665067532216
1336, 41.434404991253814
1337, 48.75218732952089
1338, 43.25160164743784
1339, 30.91529516517494
1340, 17.467606652258837
1341, 16.41552913809892
1342, 18.83942734203947
1343, 12.403235185722224
1344, 5.437677252309186
1345, -0.6001326472537585
1346, -13.540970033991016
1347, -16.38039752633904
1348, 2.5661657174946413
1349, 10.029839467982583
1350, 11.898708734036063
1351, 34.37371913053903
1352, 49.90177578756766
1353, 47.95471283679035
1354, 43.76023094829861
1355, 35.38336320549297
1356, 19.35113503394996
1357, 9.46159476502271
1358, 9.099772203906468
1359, 13.561519678206423
1360, 8.345686171991474
1361, -8.1913933132073
1362, -1.105430560541663
1363, 15.32532431700065
1364, 11.571123295262169
1365, 14.133810404085125
1366, 24.531088173574517
1367, 17.19244977691551
1368, 5.717960356420008
1369, 0.7367277441294391
1370, -10.190781522619545
1371, -19.509720403544634
1372, -10.41590660388647
1373, 6.60571121212206
1374, 25.223363919699295
1375, 33.34345690159216
1376, 26.227303211359867
1377, 5.393226933405913
1378, 5.132491674659377
1379, 16.984125989823042
1380, 14.999428030841045
1381, 14.11226325294092
1382, 19.75025674298513
1383, 23.176618486082134
1384, 30.549936773372337
1385, 43.56562602026861
1386, 36.92761366811101
1387, 18.014038235598946
1388, 6.431850755967389
1389, 1.1999364824541772
1390, -1.3427595174894122
1391, -8.784232036834965
1392, -12.311310808054714
1393, -5.245417125399854
1394, 12.983096890933666
1395, 26.122753064720655
1396, 13.281595920475866
1397, 4.356486244369535
1398, 7.851672257067548
1399, 20.56126004213138
1400, 38.31020457451859
1401, 53.13239585640122
1402, 36.76143936792687
1403, 12.456975430531202
1404, 7.88979699364927
1405, 4.284113460803837
1406, 1.3986301858999468
1407, 7.3067955554470245
1408, 13.646830824136941
1409, 17.730556914875706
1410, 25.961940452322324
1411, 32.5130312888723
1412, 32.4345866214403
1413, 24.055461755048327
1414, 12.153557215705405
1415, 4.19309867587981
1416, -5.861320201718627
1417, -10.393091637923135
1418, 11.887292840766804
1419, 32.414257546689896
1420, 38.33367537362119
1421, 42.75314739476153
1422, 31.869403421349944
1423, -1.3296205712790652
1424, -25.39476651090854
1425, -27.930308594684448
1426, 0.22966637948366042
1427, 23.310440247654242
1428, 32.8061622437117
1429, 34.568943679016684
1430, 22.984155905238367
1431, 6.9950575916623166
1432, 26.980259162156017
1433, 39.83468964474105
1434, 19.573483730939643
1435, 4.884244947533716
1436, -2.3563804252094087
1437, -7.354241569831629
1438, -3.550581001696173
1439, 3.6944708401269963
1440, 2.632089848812484
1441, 10.929668412578394
1442, 25.228497108763804
1443, 19.54885080222084
1444, 8.822027754010833
1445, 1.5828796269952363
1446, -3.7758477675324684
1447, 0.37277649937232127
1448, 16.530974314446212
1449, 16.215130826682525
1450, 7.034015155678389
1451, 4.900869838999824
1452, 9.259077127775527
1453, 10.28155902420258
1454, -6.844953346130751
1455, -15.88060888496966
1456, -9.909430893395893
1457, 6.940340180305611
1458, 29.63910703485726
1459, 47.730311789103325
1460, 38.775411147265004
1461, 29.700656280977
1462, 36.49386986866875
1463, 41.83504564088025
1464, 40.75241554766899
1465, 30.78296226755765
1466, 12.57170987419886
1467, -3.9373377775959852
1468, -8.948246208697583
1469, -0.6386030409144041
1470, 13.822782336582804
1471, 20.069005823931093
1472, 25.670554624242868
1473, 26.341782602270086
1474, 7.725684963976619
1475, 1.2408967756964557
1476, 10.684204116868841
1477, 11.377261369761527
1478, 19.92369679488229
1479, 37.37096242856751
1480, 35.433408803350176
1481, 31.07039330595353
1482, 34.859419430454636
1483, 33.2653388758481
1484, 30.2727566172357
1485, 29.56822403483193
1486, 23.917973968196293
1487, 16.123493587770554
1488, 9.699537499696817
1489, -0.3269616314355517
1490, -8.141555854384478
1491, -4.685483643590487
1492, 2.5561069809909895
1493, 9.102851341756832
1494, 9.268750168400402
1495, 0.6380855586357939
1496, -6.611254674729025
1497, 5.838670452028964
1498, 22.259545397434977
1499, 31.521073705107938
1500, 23.90787829991632
1501, 6.310844155020732
1502, -9.373773904626887
1503, -4.705550516859603
1504, 1.7062170776762287
1505, 5.177047760329515
1506, 15.277453666394194
1507, 26.883899023339836
1508, 34.540668820682185
1509, 29.337893655399057
1510, 15.165791137871565
1511, 0.6343117572341725
1512, 6.105548537697814
1513, 13.389204725788204
1514, 10.104661469826624
1515, -3.367515003779772
1516, -10.643011194605606
1517, -3.6288763278644183
1518, 12.300582788996053
1519, 20.026279820448053
1520, 11.523687231755048
1521, -0.8680415285962226
1522, -6.04768531638274
1523, -1.552572198487269
1524, -2.529512327097109
1525, 2.903896968695335
1526, 18.961640472939507
1527, 20.239481452466862
1528, 7.69117512962066
1529, -9.484862811439598
1530, -8.577540858135308
1531, 9.127356024041092
1532, 36.373198023948135
1533, 46.52533205722557
1534, 33.18866937462417
1535, 2.209612153980288
1536, -12.058627120506571
1537, -11.35056595755077
1538, -2.0575320105194805
1539, 1.942445665564719
1540, 6.215994274945388
1541, 13.767023124263233
1542, 17.388509843277916
1543, 15.225954149223071
1544, 7.456883667221064
1545, -2.492693226868141
1546, -5.340598209812924
1547, 2.316367143665957
1548, 15.719604490734127
1549, 14.580453205753201
1550, -2.107888715583158
1551, -7.491869422743093
1552, -8.345588647410295
1553, -4.470608381816874
1554, 14.447243361669734
1555, 27.486446006419555
1556, 29.035149850047674
1557, 26.99013339474277
1558, 8.306936262955332
1559, -18.354774697824723
1560, -29.204240462588587
1561, -26.703052237061456
1562, -15.127076724803828
1563, -1.77201379555936
1564, -3.255151390505034
1565, -16.022217414434635
1566, -26.628922679247808
1567, -22.172269063658405
1568, -8.33230466177747
1569, 2.827749325333116
1570, 1.1314670765032133
1571, 3.268753057604954
1572, 26.110387741179238
1573, 56.33589896167223
1574, 99.65085183629981
1575, 159.4400742353091
1576, 203.86622269554755
1577, 254.4101319094516
1578, 315.69984122819824
1579, 350.2534679496007
1580, 380.91983985422803
1581, 408.55984938499023
1582, 399.9326749949896
1583, 377.33892101803394
1584, 350.16560800210755
1585, 316.48115825002924
1586, 262.6459479214491
1587, 190.27456258616166
1588, 110.64386224093369
1589, 49.77884788455458
1590, 15.550101992017062
1591, 12.737572635761808
1592, 12.704049823748846
1593, 1.0285290359929604
1594, -24.4670868270382
1595, -33.59131033359017
1596, -30.33989643944551
1597, -18.45223377264074
1598, 3.4148723682906166
1599, 4.366898484931426
1600, -12.529325753814646
1601, -7.756775045982522
1602, -2.8534037238268866
1603, -2.894329373996243
1604, -4.661871386587336
1605, -14.055445288578994
1606, -16.223717857589236
1607, 3.73029763046452
1608, 22.087603702350407
1609, 33.94892731731488
1610, 37.47422998103821
1611, 27.453365110244704
1612, 10.85026141966864
1613, -1.6997402458255237
1614, 2.5501394703956066
1615, 17.412832192612314
1616, 27.143548818451563
1617, 11.590169946258357
1618, -13.341853531081597
1619, -25.69862872727481
1620, -9.671408025549681
1621, 13.373006207486469
1622, 22.722663924543667
1623, 14.857440704131022
1624, 20.819272006805477
1625, 36.70763157334113
1626, 46.93014688698577
1627, 26.827808334693145
1628, 16.403768116552328
1629, 16.795305709973036
1630, 14.165155621299164
1631, 29.822208919970763
1632, 31.21196457829774
1633, 4.828654279569491
1634, -3.065108972068174
1635, -14.306514703042467
1636, -24.926211712565873
1637, -1.7122492776693434
1638, 30.814395236354358
1639, 54.832226004170025
1640, 59.645962384434824
1641, 58.58174530200358
1642, 47.290999999283486
1643, 25.93310122488856
1644, 10.314156468912643
1645, -4.328263080388751
1646, -10.854291496051701
1647, 8.714972193318772
1648, 23.63494418389587
1649, 17.689407373405174
1650, -10.251328921801814
##END=



