##NAMES=
##LOCALITY=
##RRUFFID=
##CHEMISTRY=
320, -60.66593418342018
321, -34.935423441565945
322, -16.494942881541647
323, -6.747846298476361
324, -0.22496958369447384
325, 11.613135956955375
326, 27.408730512728653
327, 35.636375045069144
328, 36.08343140756915
329, 36.64164321073622
330, 43.133690766069776
331, 64.27345682755185
332, 106.59778650660155
333, 149.9137996069694
334, 176.80101763156563
335, 188.1068926085245
336, 186.32849644226008
337, 171.246378581498
338, 140.60712332700132
339, 95.99909374399795
340, 84.65919287755605
341, 119.7273876462823
342, 156.5482549348526
343, 165.35518612448504
344, 159.10384965961566
345, 161.78260046618743
346, 170.57162718196923
347, 172.3578907256706
348, 167.75326663161104
349, 174.91221381429932
350, 197.47025844881864
351, 203.28182488512903
352, 175.7838996004284
353, 133.6108089543959
354, 97.86039071054256
355, 69.46942019110429
356, 57.58639435094483
357, 59.14243277202695
358, 58.391996776097585
359, 53.69297090938926
360, 41.74005728402517
361, 21.62548161298764
362, 3.877751671063379
363, -8.0222952581571
364, -11.047386455260494
365, 0.2751622796004085
366, 18.14220535964523
367, 17.467728632434955
368, -0.25402552328887396
369, -17.563505933230772
370, -32.37486393686777
371, -31.01865585716041
372, -8.335669185931692
373, 16.434440900226036
374, 29.29706247953436
375, 29.859961885749726
376, 17.546342952440682
377, -3.523159941571066
378, -21.62662554639246
379, -36.10894677568831
380, -38.20517198549169
381, -27.72390209599689
382, -24.29995358351698
383, -34.53740071530228
384, -39.41096382753858
385, -25.83273077465492
386, -2.670054346566758
387, 17.944693290926807
388, 32.50565352361264
389, 30.893236265046653
390, 14.218363099598719
391, -8.174541810143637
392, -34.08884002529885
393, -45.099023740369375
394, -36.04263570755029
395, -23.228815205695355
396, -15.641026302246246
397, -11.235616576135726
398, -8.019219459225496
399, -6.015548095532722
400, -5.841167927388597
401, -6.280130369232211
402, -1.854211461442901
403, 7.493638505093259
404, 12.5366430165177
405, 11.54479777623601
406, 14.33796393486773
407, 25.89513606561195
408, 47.719107005543265
409, 77.53441773371014
410, 102.71345714453673
411, 100.72414942116484
412, 82.19862478595678
413, 91.96316706077232
414, 130.86421505101862
415, 170.23006801829615
416, 206.19673508585583
417, 232.81659706764185
418, 248.00828780745906
419, 247.17597344443493
420, 227.46217047045138
421, 207.20514704918423
422, 208.4511547627353
423, 222.46030387056817
424, 229.7165304284208
425, 224.89213073755855
426, 189.36794295442633
427, 126.4836332316554
428, 78.3471504721183
429, 61.310837584933324
430, 62.4694312710817
431, 77.49511862642976
432, 93.0112053224857
433, 104.01050385975941
434, 97.91934380736166
435, 58.02713511907132
436, 2.144959900477261
437, -27.020635821774704
438, -31.963295016390475
439, -19.000573001532757
440, 8.806197223369963
441, 24.10794951188109
442, 20.012969816591067
443, 8.307368259665964
444, -5.491684958757105
445, -10.749848747966098
446, 0.15574228890727682
447, 24.865749390868586
448, 61.54753005644852
449, 97.26352011512245
450, 109.21680759489573
451, 101.82209989143303
452, 94.69839266764757
453, 89.75056439363834
454, 87.15031326043027
455, 86.51187825907073
456, 81.6942317604753
457, 70.80854149837614
458, 61.25553219985704
459, 57.1878573219019
460, 54.204004385423104
461, 47.9728077278869
462, 37.24820937665572
463, 19.880003643744203
464, 0.03302091500700044
465, -17.883608166383056
466, -32.91010074107726
467, -34.985571770432216
468, -24.202859093393272
469, -12.649054339617578
470, -2.321378488848495
471, 8.13164799904007
472, 19.88321077787623
473, 32.1334809546006
474, 44.89148995667529
475, 49.524310974404216
476, 36.12609491427065
477, 12.065965017682174
478, -7.28973957015296
479, -20.142615903081605
480, -17.231348545228684
481, -0.276921818338451
482, 18.06990504307032
483, 34.165517684128645
484, 32.839430186055324
485, 11.5729080148285
486, -3.7109544633804035
487, -4.722058683642899
488, 8.018993049505298
489, 35.52057889064781
490, 53.20223890063244
491, 35.86538181441756
492, 1.0637093596196792
493, -20.627808057997754
494, -31.001994079302676
495, -31.54852053949071
496, -24.08975411598658
497, -15.46981343659354
498, -7.7279747241518635
499, -14.835635856041336
500, -38.61825677253728
501, -55.977645247388864
502, -60.415827218603226
503, -48.836493514969334
504, -18.39346809982817
505, 13.636606389578446
506, 34.64889968049101
507, 55.45444289595616
508, 89.1388321118975
509, 138.7699159010299
510, 208.6394607540351
511, 282.76485934801167
512, 354.8877553309667
513, 421.7004415534211
514, 469.81095487577295
515, 497.7426711842363
516, 507.06804581632423
517, 498.92043174861465
518, 484.34173785361054
519, 466.41490721746777
520, 432.03273509971405
521, 375.06777625684117
522, 312.19192837252194
523, 255.3775053120262
524, 197.46513792244696
525, 130.42277038717657
526, 75.9791018588403
527, 43.53226244439975
528, 26.741257234860313
529, 15.487234388940124
530, 9.494185517281949
531, 12.86377920227278
532, 22.874710547725044
533, 18.474997321513
534, -1.0862194462297339
535, -14.721075388737518
536, -19.192808088539095
537, -22.522151386890982
538, -27.448941160288086
539, -25.113964460577336
540, -10.59419351697943
541, 7.666515899487422
542, 24.183747179806232
543, 30.968888801859066
544, 20.01706213147918
545, 3.1038382360438845
546, -0.3122488895205606
547, 3.3159039582751575
548, -0.4391004246790544
549, -5.956721056272727
550, 7.8979799671251385
551, 37.86402711033588
552, 53.174150198192365
553, 52.92052840209908
554, 57.725909264449
555, 69.27734627448444
556, 62.16421389399511
557, 30.664266715954
558, 0.5869616902000416
559, -17.936910521571917
560, -23.441512955356302
561, -14.738306953509891
562, -0.2441954336118215
563, 14.505513173024156
564, 28.462148902695844
565, 37.45345307379648
566, 39.72971609940032
567, 32.63391062124174
568, 18.621177851564426
569, 2.8698778196376225
570, -11.270745512190842
571, -16.99452927024322
572, -15.417838226625463
573, -10.413406813489928
574, -2.6264431682575378
575, 4.736781623283605
576, 11.018080826566802
577, 9.607649258792662
578, 0.1496321708382311
579, -6.838635312238694
580, -8.555181194455145
581, 4.753022768763913
582, 37.44406578869712
583, 62.71236101712748
584, 67.41933248744681
585, 58.27270734223566
586, 39.74751557887976
587, 17.43205459370256
588, -1.915143306428945
589, -15.704354113606314
590, -19.78846076863738
591, -16.827609749181647
592, -10.19468816999688
593, -2.260302404574759
594, 1.4608824690349138
595, 4.556264414954057
596, 16.687436484458885
597, 34.72794511468419
598, 39.76792207673134
599, 34.47169633682097
600, 38.08139640701302
601, 51.73116885685886
602, 67.71426278567014
603, 82.2351705773035
604, 74.78382089192746
605, 43.25377846894844
606, 15.817864470700442
607, 1.330407028341142
608, -14.558078344844034
609, -37.05105195630313
610, -39.24692514095477
611, -8.972243389931464
612, 11.354042828859747
613, -3.013409167071586
614, -13.956185860806727
615, 4.962201334577912
616, 29.08627347536276
617, 33.756982659857385
618, 27.72020175808757
619, 21.14708516087012
620, 12.192371549153904
621, -0.6364080486309831
622, -7.960969961608498
623, 8.741530051935115
624, 39.107797312424736
625, 54.844774497654726
626, 54.02425507685075
627, 34.11632825606648
628, 3.5820030978393333
629, -9.150181673503539
630, -4.251251010973647
631, 14.526472178247786
632, 43.89297150209313
633, 59.481946335836255
634, 60.363125293151825
635, 59.02833822376124
636, 58.20419145471351
637, 62.782869338198
638, 71.38602568857641
639, 62.05279483004051
640, 32.22906748497371
641, 18.431268578022355
642, 27.690766048075602
643, 41.11716401733065
644, 49.49246294137447
645, 60.4969433678034
646, 76.34567424562738
647, 69.8527151287908
648, 29.027930508600548
649, -5.944571168227412
650, -13.698553109643399
651, -7.916554390594683
652, 3.6605979326104716
653, 12.546922067171181
654, 11.182774333303314
655, 4.717171125585082
656, -1.8944354103241494
657, -8.197922550760268
658, -13.687773660885796
659, -9.753183984661518
660, 14.853556216567085
661, 38.655848461748974
662, 31.032070922074126
663, 8.572346958209891
664, -1.8190965135509032
665, -3.485092328297469
666, -1.1708236658923852
667, 4.995227442923351
668, 15.08704491214121
669, 27.31979837702056
670, 34.03223129681464
671, 37.34960636369942
672, 43.06528230080221
673, 48.35245254993606
674, 44.735315071176956
675, 32.75904178051678
676, 15.541372228262844
677, -2.56141097998443
678, -14.713079939998352
679, -19.25578031157056
680, -8.634176915553326
681, 11.689720679280072
682, 14.46217316020011
683, 3.035103699492538
684, 3.408580191058718
685, 19.0386406408943
686, 52.50390609559145
687, 98.5049605506938
688, 138.57258658738465
689, 164.48964745166268
690, 144.70126596800765
691, 81.89410643171504
692, 23.317800256418195
693, -17.833902495862276
694, -27.224642004352063
695, -6.847141896214453
696, 13.406938790745698
697, 28.80368447497858
698, 34.449463787908826
699, 30.060156124489367
700, 19.445508808585146
701, 4.874728765331383
702, -0.6408271517593676
703, 3.506092279638324
704, 1.1332095886864408
705, -10.212856520309288
706, -13.258433132119535
707, -4.527014641133064
708, 7.11207829961495
709, 20.49219676935536
710, 39.8036824624287
711, 63.283721781222994
712, 85.24434592705438
713, 102.98779609426674
714, 103.6030015801316
715, 85.35518087830314
716, 72.9760577402667
717, 71.96865497605177
718, 59.24930261408372
719, 29.754541391874227
720, 10.867404397227801
721, 7.038057476827817
722, 3.3236132837591867
723, -3.926645926994752
724, 0.40479850989140687
725, 20.31962661169564
726, 40.25904048048869
727, 53.139215555911505
728, 63.97608492619838
729, 73.51403129112077
730, 71.38502438963042
731, 55.29619397879287
732, 36.426074879449516
733, 18.78869915526957
734, 12.051554350664446
735, 16.547238560060578
736, 15.313073771996642
737, 3.9353898678400583
738, -15.000091986430562
739, -40.11340107519209
740, -44.53091242178925
741, -23.68582574604443
742, -8.720189426308934
743, -6.412255791306961
744, -10.054955026555035
745, -17.26042977781799
746, -18.51343452963374
747, -10.894427055967753
748, 10.86505803480759
749, 45.48019728074178
750, 53.80324688991641
751, 31.255998866656228
752, 9.298602495180603
753, -3.66515421882832
754, -3.3615688473946648
755, 8.857044312362632
756, 17.203149610239052
757, 18.762593310455486
758, 20.898843242877774
759, 23.44908573455905
760, 17.968233960842554
761, 4.456849270398379
762, -9.30876896121481
763, -20.357822356952965
764, -13.706736858483055
765, 9.65446974765291
766, 34.71574782910284
767, 56.82917592113154
768, 69.52043886554384
769, 71.66860568492302
770, 61.70802177021869
771, 48.202981738955714
772, 61.16441524978654
773, 86.10976996325371
774, 69.85210342297069
775, 25.422412961981536
776, 3.1372787157888524
777, -1.9832545128356287
778, -4.9019201854098355
779, -5.318700908208484
780, -0.25843959184021514
781, 4.732638569259507
782, -2.5480035991568
783, -9.808292414048992
784, 6.807570221493734
785, 38.86786355082586
786, 68.4194093868955
787, 84.53202397131827
788, 71.90749195146236
789, 45.84235540492227
790, 25.60518495189899
791, 16.93996366446663
792, 22.355038177181996
793, 32.59006013810176
794, 36.34384662096272
795, 35.70717309847532
796, 32.33226672292221
797, 25.433284612741772
798, 14.648264294044566
799, 11.80101158305115
800, 22.209661186390804
801, 27.414946980163222
802, 19.24158170706687
803, 10.879514848918916
804, 9.230569662568087
805, 16.1713316327714
806, 32.3759986095738
807, 45.84949206399688
808, 52.81440178440971
809, 47.863322756717025
810, 30.85791924051955
811, 12.407492929796717
812, -2.778225081458004
813, -8.83032092657777
814, -4.0402400135080825
815, 17.245811869106547
816, 49.670553124231446
817, 55.3270513254738
818, 39.8755595605362
819, 39.06809962180341
820, 44.59398190243883
821, 22.110212461488118
822, -13.046498154262736
823, -18.948841472249114
824, -7.805406900462913
825, -5.913187181236935
826, -7.590331219567815
827, -2.6864924893416173
828, 5.340586124002584
829, 11.853189643954465
830, 10.971229653685441
831, -2.864722090178475
832, -12.057099462896076
833, -2.941690100067717
834, 8.06416733403239
835, 11.159276642705663
836, 25.195562688209975
837, 60.05090268911954
838, 84.94054206638793
839, 89.22351389007235
840, 90.27976268160273
841, 93.09301899160346
842, 89.47554567747466
843, 77.77829427910729
844, 61.7188034859264
845, 43.032510144637854
846, 27.171691954064954
847, 15.973529210456036
848, 0.9780758610540943
849, -14.874992301191014
850, -15.81732264126731
851, -6.954131906475595
852, -3.6957535141991684
853, -4.356611308783613
854, -4.6972911875236605
855, -7.631203263790667
856, -18.008441435804343
857, -22.79171407103422
858, -6.312414098649242
859, 16.811498927667344
860, 33.391731558986066
861, 37.539757857115546
862, 25.888196405890994
863, 9.705457301948627
864, -4.121376077113382
865, -7.886788997204349
866, 0.3703256019271066
867, 11.217463176493766
868, 20.31290366387111
869, 16.60463912303203
870, 1.2922725044481922
871, -7.882695344587773
872, -9.613345230200139
873, -5.133284994193673
874, 3.203899289421315
875, 8.730521201690863
876, 7.553175844874204
877, -6.765184114759904
878, -18.026193169202088
879, -1.6788176041518454
880, 20.924907828801224
881, 25.035756338556894
882, 19.833412774136377
883, 12.242798286841207
884, 2.1996728544654616
885, -9.484767195062886
886, -11.313008239865667
887, -0.0011045372320950264
888, 8.299238786203205
889, 9.077586810781213
890, 5.105890445784098
891, 0.811737344123685
892, 12.281123652323004
893, 34.67454206454386
894, 38.57598071858047
895, 28.849318791297264
896, 23.113343092965806
897, 18.56427862720011
898, 8.993196658509987
899, 2.1674538920160558
900, 5.708076827411787
901, 12.649014055130465
902, 17.87839775195789
903, 23.284144516919696
904, 30.499169187507505
905, 37.48326936572994
906, 42.414260908548385
907, 34.46107779152226
908, 13.500216243604882
909, -1.4169311912592093
910, -7.628394026727619
911, -1.5265675080518122
912, 14.545978887299498
913, 32.35073873156216
914, 46.54020528089313
915, 50.6686167356911
916, 48.284552960492874
917, 44.29969088593316
918, 31.25651088700215
919, 3.266258957961327
920, -12.618040458655742
921, -3.8509351472730486
922, 11.743807762346478
923, 29.36255943449396
924, 58.2218253298397
925, 90.1959862683234
926, 83.82550537954558
927, 48.51812886996413
928, 44.87949708917586
929, 59.145809175741306
930, 42.86446288631669
931, 16.950511186647418
932, 20.98213808766741
933, 29.253729240906978
934, 12.33798734065931
935, 5.921151053775247
936, 29.82836950858473
937, 35.02429095020125
938, 4.9941557428574015
939, -15.237978431237934
940, -17.074786118786506
941, -10.844906066648036
942, 1.070585025823675
943, 15.044604417531446
944, 26.768407553594443
945, 27.127207302990428
946, 19.312123592069838
947, 8.94912252074755
948, 2.8212857891994645
949, 5.597893082211158
950, 2.1126572712601046
951, -15.205458226149858
952, -15.38452489501833
953, 10.986394404168095
954, 43.281144143291385
955, 71.22675526985404
956, 76.08226327659213
957, 62.54027620071611
958, 52.43870267188504
959, 48.75050652888967
960, 54.27327632997731
961, 55.918041351842476
962, 38.68556911680571
963, 6.404799863232256
964, -35.728412719545304
965, -47.93442123110253
966, -18.050851482359576
967, 11.407902024251598
968, 30.76326728107233
969, 32.598592596050366
970, 20.46439044300496
971, 8.17086988234405
972, 1.0905067350340687
973, 5.239583939734075
974, 16.32345218397313
975, 28.31102462290619
976, 31.56977552243734
977, 20.795188122441687
978, 10.967892612445212
979, 6.581675145327608
980, -1.5868698707545263
981, -13.3365881366135
982, -15.300530460275695
983, -8.027715275356968
984, 3.630734356778703
985, 13.243982011133994
986, 9.123171947012452
987, 1.5787192746247456
988, -0.5308850665278442
989, -8.973646665543129
990, -27.84292114102209
991, -29.74338076680033
992, -11.483893032238484
993, -0.6368659299641877
994, 5.832820341167462
995, 30.032823395702508
996, 63.256186667771544
997, 78.76985195854832
998, 88.52566939580902
999, 105.0547839172159
1000, 109.57514981426175
1001, 93.14868045342882
1002, 79.54137629860634
1003, 73.28356730064115
1004, 54.26055716925657
1005, 25.58459813122863
1006, 12.746602968496518
1007, 7.974154820820331
1008, -5.506414660778319
1009, -13.28485724667189
1010, 0.4713474593718274
1011, 15.246611321423188
1012, 21.538327343354467
1013, 37.99263270762458
1014, 63.25178878605038
1015, 68.06589016920952
1016, 56.619485745985
1017, 57.822381509604384
1018, 59.444342658922324
1019, 36.20775974767457
1020, 13.519478079193505
1021, 15.710864896644125
1022, 17.0013657376021
1023, 5.50461599270966
1024, 6.459128493657772
1025, 21.401447784284755
1026, 24.823798845794954
1027, 17.61320016625723
1028, 10.598241399535254
1029, 8.628541572081303
1030, 15.883334634858329
1031, 19.1207846841462
1032, 10.402337594523487
1033, 1.9815800040032627
1034, -1.924258371711403
1035, -5.286055731188753
1036, -4.489026526840462
1037, 16.580977111963875
1038, 41.88281853420449
1039, 38.80253467479815
1040, 21.075615446648953
1041, 2.241105937244356
1042, -7.21828972662297
1043, -4.639774898820178
1044, -0.6080181219131191
1045, 2.3308267889551644
1046, 3.1117221281729144
1047, -1.2346070343810425
1048, -16.467527211036213
1049, -34.29412787921683
1050, -45.57650927787108
1051, -54.08199178875475
1052, -61.02411098517405
1053, -55.52088269044543
1054, -40.08908622239869
1055, -42.73020854606875
1056, -59.45563996803867
1057, -72.87561243982236
1058, -73.96398168818268
1059, -51.95835210995574
1060, -25.266990300175166
1061, -3.4535661506779434
1062, 8.1224391081887
1063, 9.577906996553793
1064, 6.23709114063422
1065, 16.551994583549458
1066, 83.97494567579997
1067, 194.97492744852389
1068, 335.62036721828554
1069, 523.3951384801221
1070, 723.1716399693578
1071, 900.6253741126802
1072, 1050.911321051275
1073, 1192.2017667902965
1074, 1314.8842321049306
1075, 1394.2573249067518
1076, 1434.4404990349522
1077, 1439.9047467683504
1078, 1399.4709767834775
1079, 1310.8369514243022
1080, 1197.6471563641026
1081, 1062.9955663820292
1082, 899.1560056716844
1083, 715.4696831258407
1084, 529.2552434644113
1085, 342.06039033435627
1086, 190.47311451518
1087, 83.06797098118477
1088, 17.097159712686334
1089, -17.905806743921858
1090, -30.66982025683683
1091, -34.90016702522189
1092, -41.54154231096072
1093, -63.372292648924486
1094, -84.18951326804927
1095, -94.62524419742658
1096, -84.06038975209412
1097, -54.13506776826216
1098, -25.345070491021033
1099, -9.892701048063827
1100, -29.882900477599833
1101, -48.0575979823152
1102, -34.938679499044156
1103, -15.24837841277622
1104, 1.3168341655091353
1105, 4.935605486181885
1106, -4.748022080992087
1107, -23.88838865759317
1108, -30.61394550920886
1109, 0.4774673490974237
1110, 23.72786130773966
1111, 17.500771012390032
1112, 5.145260242225049
1113, -5.830713360126538
1114, -10.565828014227009
1115, -5.82588684424627
1116, 13.494663799720001
1117, 27.547104144901823
1118, 24.47392044994558
1119, 16.66818915629301
1120, 8.052144625309666
1121, 1.241862321012377
1122, -3.4769597032136517
1123, -5.139743167395864
1124, 1.8950135576760658
1125, 21.41657494217361
1126, 34.29988571653121
1127, 36.71637908695266
1128, 40.49489071339485
1129, 40.761820469417216
1130, 24.068359302811587
1131, 15.02594666805453
1132, 30.94986180275191
1133, 52.64556454203739
1134, 68.33361230822993
1135, 72.11129507822443
1136, 69.44138778400884
1137, 74.50511856983758
1138, 88.15267331968062
1139, 109.58449206165096
1140, 118.23254730168628
1141, 106.08155943500606
1142, 71.93586044084986
1143, 31.761832478216093
1144, 25.20813693020682
1145, 28.45374242099024
1146, 17.263055294683
1147, 2.8540323864690436
1148, -9.786218883311449
1149, -6.597303789743819
1150, 9.499790317251609
1151, 28.314185871458903
1152, 33.69458196802225
1153, 14.394086827474894
1154, -10.432440370695986
1155, -30.18898049577183
1156, -22.74898065144407
1157, 0.7133897063631593
1158, 13.548886495753322
1159, 16.883856334290613
1160, 12.710409789870027
1161, 8.132641882528333
1162, 4.133990847740279
1163, -3.46055820993206
1164, -13.098831456982225
1165, -21.152697323946995
1166, -25.161052260586075
1167, -22.196418482599256
1168, 0.7895554324368277
1169, 36.50651042016034
1170, 43.693506642695866
1171, 34.509006479032905
1172, 28.787626556977557
1173, 36.38084482279555
1174, 59.26955266474215
1175, 80.0808802975771
1176, 93.03471733920014
1177, 90.08617975353809
1178, 86.00934099602637
1179, 94.67694686627874
1180, 113.30263359842138
1181, 135.2260198980057
1182, 134.184003770275
1183, 112.55809990430316
1184, 80.49220934283039
1185, 42.98149575935531
1186, 7.996563317703476
1187, -22.30917111271083
1188, -40.90396241057897
1189, -22.432856217177687
1190, 16.52466689542962
1191, 54.52855634372281
1192, 59.90599822951663
1193, 26.645649286390835
1194, -7.980896726695391
1195, -27.691018146526403
1196, -11.538974848056569
1197, 11.849073363478965
1198, 22.20028595085205
1199, 13.21825524446922
1200, -6.438047741384253
1201, -9.838598995414031
1202, 5.90870686996459
1203, 42.08797146578854
1204, 63.29605767776047
1205, 58.63405143478576
1206, 49.71541990830701
1207, 43.84511689917508
1208, 48.813649739549874
1209, 52.41381250115046
1210, 45.88314903698301
1211, 24.464718226588047
1212, -2.1386968699680438
1213, -2.292182729034721
1214, 5.3247262032127765
1215, 1.1137011437522233
1216, 3.2486157829998774
1217, 12.609193261044311
1218, 2.681172900979618
1219, -2.495910117329913
1220, 36.29173580069346
1221, 52.104512961821456
1222, 19.312420952803222
1223, -3.019205990894079
1224, -8.536647980396992
1225, -6.197295551337447
1226, 6.135113975247805
1227, 27.36577996483811
1228, 19.128330648953124
1229, -13.053430476186804
1230, -26.305240717308152
1231, -20.88461036328681
1232, 0.06761201562767383
1233, 10.280638040047052
1234, 4.525968740682401
1235, -0.07503061569786951
1236, 4.251480739416365
1237, 25.480856110792047
1238, 33.93463577362945
1239, 20.837524311006746
1240, 5.357460748899939
1241, 1.101802313776716
1242, 24.57793637665236
1243, 47.27525708602752
1244, 53.75673539732725
1245, 43.2446701965855
1246, 25.117386958852876
1247, 21.42083609306701
1248, 33.43960449427868
1249, 56.16297779570414
1250, 61.61833937401116
1251, 47.979875668014756
1252, 25.35849143467931
1253, 19.536149418329842
1254, 42.333231916783916
1255, 46.11331061902729
1256, 29.771622583001772
1257, 21.345370236518647
1258, 17.43674631576596
1259, 13.712504885854287
1260, 34.08755967716297
1261, 65.54134736308424
1262, 52.545609884317855
1263, 30.543058442072834
1264, 38.19987710848636
1265, 53.671828103811094
1266, 67.53344967505927
1267, 67.55259316677075
1268, 55.52999531856585
1269, 35.49543500964592
1270, 24.574508956496175
1271, 27.41086595680372
1272, 31.000215902583477
1273, 24.303366022648333
1274, -0.759113643703131
1275, -11.246852439513532
1276, -2.346115769318203
1277, 11.666519956552293
1278, 17.937031750592723
1279, 5.881572662781764
1280, -4.351274533065407
1281, -5.5197832440399
1282, 9.41210047212553
1283, 20.05404764771265
1284, 6.89047457128072
1285, -14.68307755445312
1286, -29.351800377879954
1287, 0.9871354352144408
1288, 39.495256357121434
1289, 49.49975789625023
1290, 42.27201615450849
1291, 22.520263908856577
1292, -5.000225245003094
1293, -7.272351748689289
1294, 33.91607738868879
1295, 51.64743368809104
1296, 40.03547277298185
1297, 23.068564002139283
1298, 6.869310595440766
1299, -3.847099036808686
1300, -5.826851178362631
1301, -4.4774736075214605
1302, -11.674973432893239
1303, -11.693350809595358
1304, 1.1114602114321315
1305, 5.747141357357577
1306, 1.8239034625203203
1307, -4.9104034503798175
1308, -13.85206056854986
1309, -20.38926067497414
1310, -2.5821586411748285
1311, 17.80056537721157
1312, 8.394428738746683
1313, 3.0199331773937956
1314, 8.298446349459482
1315, 3.0012352143457974
1316, -4.178399038056341
1317, -4.464044694145741
1318, -3.5440800088272226
1319, -0.21410653971997817
1320, 12.758957665516391
1321, 15.649452708047647
1322, -2.596279316181608
1323, -18.758264292895547
1324, -21.928163810613114
1325, 2.210123214237683
1326, 36.58045958502407
1327, 66.18277781074175
1328, 68.2477457219793
1329, 54.72810272656352
1330, 45.81759141365637
1331, 40.408998833481746
1332, 39.3292104256343
1333, 46.750383524885365
1334, 44.24956643487258
1335, 18.821848842996587
1336, 4.659963824624356
1337, 1.733500152954548
1338, -4.279303634444659
1339, -7.680292765381637
1340, -6.0534232366462675
1341, -5.388311521996911
1342, -1.0631647156742474
1343, 14.410799236450657
1344, 27.05025409096288
1345, 29.256270789589507
1346, 13.086131226031284
1347, 1.5079118533003566
1348, 10.350493868769263
1349, 22.926263950602333
1350, 32.09842824367206
1351, 33.695672407854545
1352, 35.14965799606216
1353, 41.31767660837431
1354, 56.81630835870965
1355, 64.14620344440846
1356, 43.1220785964033
1357, 11.271022320707743
1358, -14.032086446434732
1359, -6.528798933789403
1360, 19.665989466881
1361, 51.085001483349515
1362, 53.82139065023512
1363, 32.94234596073147
1364, 5.310228652495425
1365, -1.5994456163125506
1366, 15.38658813361235
1367, 39.60446400091496
1368, 54.5765049976726
1369, 52.32286685355393
1370, 49.46016851553668
1371, 41.24848564403692
1372, 15.44996887407251
1373, -5.471847701847764
1374, -14.717086427750473
1375, -11.681849706646062
1376, 2.148027734565403
1377, 22.58644070249011
1378, 20.116300968409632
1379, 11.12798251724871
1380, 28.475881815264984
1381, 51.1797900927686
1382, 68.47073551803442
1383, 85.27802362453258
1384, 90.0919136402581
1385, 77.36247725215708
1386, 73.99322882654724
1387, 74.51542082173
1388, 62.39824347846934
1389, 48.18328413083964
1390, 43.450276839178514
1391, 56.03441900468806
1392, 73.36239161081994
1393, 86.93004840103004
1394, 82.95791580571313
1395, 70.12229247949017
1396, 63.78817827931016
1397, 67.74017363249823
1398, 76.55167723227714
1399, 73.64649256481334
1400, 62.89408800920228
1401, 48.96960689945445
1402, 41.15222058567997
1403, 34.41840255023271
1404, 21.07486485942536
1405, -7.161274588077504
1406, -34.05235567511136
1407, -22.301143101260095
1408, -6.111872393464182
1409, 3.160789211514384
1410, 14.564417850422615
1411, 8.398679536674535
1412, -20.254129473157263
1413, -15.142184812838423
1414, -1.5071604620943617
1415, -20.64543778434836
1416, -25.327273991179027
1417, -10.6689093212226
1418, 4.8277546121353225
1419, 24.228979300143692
1420, 39.38393331442876
1421, 18.023551127233986
1422, -6.907537490752475
1423, -8.596639828095249
1424, 4.864607807341599
1425, 21.122745844530073
1426, 22.908436719001656
1427, 10.39177644443771
1428, -5.835358626421112
1429, -3.8866622159175677
1430, 0.8538591631458985
1431, 4.747237421672253
1432, 19.845090403852737
1433, 30.89212040080929
1434, 29.034087627165718
1435, 28.147214281990273
1436, 19.89907534132817
1437, -4.061062869426678
1438, -8.554377906889385
1439, 4.757961370031808
1440, 18.49704892999307
1441, 16.79740781043438
1442, 2.098068141488511
1443, -3.7883978915951957
1444, 2.535862070316398
1445, 21.809280512408804
1446, 47.999576245085336
1447, 47.7565336734433
1448, 5.12321957439417
1449, -14.612542648455928
1450, -9.106779860081588
1451, 12.841101084692127
1452, 40.9368224753016
1453, 55.63574244172105
1454, 32.375946262854086
1455, 10.949674632338429
1456, 7.231959345166615
1457, 21.149806389679725
1458, 18.240307972378105
1459, -4.8949871700506264
1460, -3.1775427799266254
1461, 7.339966036414808
1462, 13.841001289563792
1463, 14.569902170791465
1464, 8.079251465219386
1465, -1.1473274762201982
1466, 19.141092280176963
1467, 46.14707753945004
1468, 43.19515422044333
1469, 24.051912116629865
1470, 4.545192919712463
1471, 6.176840636715497
1472, 23.593216074656084
1473, 44.81980910250604
1474, 42.28032966552928
1475, 49.20841333152839
1476, 67.73809161847385
1477, 61.822370493140625
1478, 48.35271304822891
1479, 37.1312331284762
1480, 25.79627608989813
1481, 35.26053424583188
1482, 64.64594528368798
1483, 62.607697268718766
1484, 39.63634981013638
1485, 12.89174891719722
1486, -1.879261807540388
1487, -2.8307730819269636
1488, 7.750641314370114
1489, 6.9566793486565075
1490, -1.0914465357836889
1491, -4.341147076979723
1492, 4.494343613007004
1493, 16.14291705731739
1494, 10.768221031918983
1495, -14.778620407371818
1496, -36.187548143370805
1497, -9.384181132133563
1498, 14.928310638106268
1499, 22.72431935108216
1500, 21.58664445945942
1501, 16.13461404136433
1502, 21.004585141283314
1503, 61.943162537418175
1504, 72.8988940547988
1505, 43.70095873754326
1506, 24.469657672896574
1507, 12.311147836392593
1508, 2.6709473770133627
1509, -13.995195781498296
1510, -19.248415813302017
1511, -7.050093309780095
1512, 8.731890178402864
1513, 23.883532006169844
1514, 28.185848329638247
1515, -1.657596610996734
1516, -14.282134390879946
1517, 9.193219471325392
1518, 20.86689747355649
1519, 20.387520817157565
1520, 9.541522203517161
1521, -17.60752825090549
1522, -18.543489164362654
1523, 21.92783154341032
1524, 38.86213216311353
1525, 39.80629240791313
1526, 35.80869749308022
1527, 29.60389982823017
1528, 38.79236611810484
1529, 60.85511386393409
1530, 33.12587902742143
1531, -1.7366624133146615
1532, -10.361268967729302
1533, -0.906278445814678
1534, 23.52371185744778
1535, 50.728941862989814
1536, 39.71889498645214
1537, 18.82977448804013
1538, 6.5363923228123895
1539, -10.974219913327943
1540, -26.509736284644532
1541, -28.652124833306516
1542, 5.204703055856953
1543, 39.23438916342366
1544, 48.180245885351724
1545, 33.94613320504595
1546, 3.8773948908692546
1547, -23.65181307770399
1548, -7.5523563993401694
1549, 2.043909409565458
1550, -12.52351399420877
1551, -22.4058335310001
1552, -14.626248448321348
1553, 5.948617411633677
1554, 10.805314179609923
1555, 2.1861149040842065
1556, -15.088657645801504
1557, -34.51815807647199
1558, -35.99548438594866
1559, -29.004809044777176
1560, -46.60058515094806
1561, -57.29752598966115
1562, -56.822321693816775
1563, -54.33301169963488
1564, -37.302603206676395
1565, -23.299285950818557
1566, -36.319450313949346
1567, 2.1479780042836865
1568, 66.01253686794826
1569, 106.98129313035952
1570, 175.99486265545693
1571, 277.5998562661771
1572, 417.3124011890832
1573, 605.6141224060902
1574, 794.0083943443333
1575, 937.0017996924216
1576, 1030.0660826601352
1577, 1102.8912120030373
1578, 1148.9090967092106
1579, 1079.1962987892475
1580, 962.3106530159657
1581, 827.9357051311372
1582, 653.2407040334783
1583, 510.3199561423926
1584, 392.5555194246699
1585, 229.0289550973539
1586, 130.01952127518962
1587, 79.3461719957404
1588, 20.197621939642886
1589, -12.70028097757222
1590, -31.754074448567735
1591, -54.5086358875169
1592, -36.378504745370265
1593, -20.653406368556716
1594, -40.899209394470745
1595, -46.902385549312385
1596, -41.60917573318875
1597, -30.245823822659077
1598, -13.291989646231741
1599, -11.079339231358972
1600, -24.389209507866326
1601, -31.536769819236724
1602, -8.339561279929512
1603, 18.304607728067822
1604, -5.327054788857822
1605, -14.919764544988539
1606, -5.6910252184343335
1607, 13.526490379500501
1608, 51.45556655823293
1609, 74.2272993639308
1610, 60.79472796896789
1611, 28.94916222144002
1612, 6.8137973722268725
1613, 0.011421079761021247
1614, -12.549260828186561
1615, -4.94764832560395
1616, 7.594591568183205
1617, -12.560283481723673
1618, -23.630367392735025
1619, -9.529112026372786
1620, 29.01638724991153
1621, 42.539306428278906
1622, 37.34058234865006
1623, 21.38579978251255
1624, -7.836891727830334
1625, -8.69697302836721
1626, 19.5757150040763
1627, 38.55748304706049
1628, 26.797144252002
1629, 5.00325295627772
1630, 6.097520949462705
1631, 18.18297884409003
1632, 34.23046582189636
1633, 41.02915015845247
1634, 5.099362944405584
1635, -25.770998582951506
1636, -23.845813249683488
1637, 19.946464646215645
1638, 28.444257461435882
1639, 7.443042156062802
1640, -4.392989561097238
1641, -1.926329563735635
1642, 19.90382826291716
1643, 47.37601846268535
1644, 27.428034137759823
1645, 2.002754167066996
1646, -7.562745286168138
1647, -1.5773552908740385
1648, -2.1008042267794735
1649, -13.544641980296547
1650, -29.263558751757955
##END=



