##NAMES=
##LOCALITY=
##RRUFFID=
##CHEMISTRY=
320, -70.0213865789483
321, -33.44647168094889
322, -5.412352058925535
323, 8.488842289922104
324, 15.132739380014755
325, 24.811109562671845
326, 40.227642675412426
327, 68.9219201028991
328, 112.47439593304807
329, 145.76287605927064
330, 164.44925143252476
331, 180.5205840238159
332, 200.5544990052058
333, 223.51580690393166
334, 248.0944460712726
335, 274.0351589307302
336, 300.64672405384226
337, 323.5217133475071
338, 315.60578726875065
339, 274.7049389167714
340, 247.6597305786745
341, 252.2656115688842
342, 258.45833560599203
343, 241.50040423705468
344, 208.7024098032707
345, 173.600441511604
346, 137.38939644203128
347, 103.56975039851568
348, 83.56102452945379
349, 81.97873975089715
350, 99.90578101672327
351, 114.25888850515912
352, 117.36960876285957
353, 112.57886434140346
354, 103.66925733831704
355, 92.01303523024217
356, 80.8932123180075
357, 69.50941883686755
358, 53.09327324120568
359, 31.628105494748525
360, 16.64433548740817
361, 9.106815536635622
362, -0.060174597640070715
363, -17.00226328017561
364, -33.31672742633236
365, -36.8142731799544
366, -31.03981599886174
367, -24.563088850723943
368, -17.941838342090705
369, -14.418623147939797
370, -13.79035542427664
371, -8.38979518718952
372, 4.829576736758099
373, 14.149657811054567
374, 10.91505892538953
375, 1.6504396493292006
376, -3.88433025300219
377, -8.16128364582437
378, -17.472457836463946
379, -28.976740820060513
380, -18.725765027127636
381, 16.13224619540597
382, 39.81233031425836
383, 39.49948159777705
384, 33.32891986899631
385, 33.57987671125011
386, 28.82788411888214
387, 2.9334209081935114
388, -32.27296836445021
389, -48.18461257883064
390, -46.65218108456975
391, -39.14713608279635
392, -27.261993437448837
393, -17.392832193290815
394, -10.919929739020517
395, -7.772262050169957
396, -7.97912202403495
397, -11.777461674651931
398, -19.809437550102302
399, -27.127878049568608
400, -21.00694749573995
401, -3.885786055225253
402, 9.780295346401545
403, 20.549556179459614
404, 40.51302346607372
405, 74.17526314476709
406, 116.77652182734164
407, 168.72529085521637
408, 223.81305295315724
409, 287.0191362026126
410, 346.34711469657486
411, 380.39116782433666
412, 393.6920801612014
413, 402.64910748383045
414, 408.80144707293584
415, 413.71690447256333
416, 417.5403471717691
417, 418.20063433220093
418, 414.9273894509224
419, 402.71398762253557
420, 378.44753387921264
421, 353.85388655075985
422, 343.02986331090324
423, 338.9326569761415
424, 325.8526644562371
425, 304.91520746951755
426, 282.979994307183
427, 262.00590507601555
428, 251.80034204552067
429, 252.96103172487346
430, 235.07574536954598
431, 186.40280512239224
432, 129.69185959863353
433, 80.92843647721384
434, 44.029773724269035
435, 9.750247386855335
436, -16.769514664007147
437, -17.76708951139699
438, -0.14549158898626047
439, 5.485859396181695
440, -1.1104589458009286
441, 2.273958931084053
442, 19.69669892262391
443, 25.35105922864568
444, 9.527549326356166
445, -1.8230831525143003
446, 7.119158741148567
447, 25.05601680320069
448, 38.57302080939189
449, 48.74365597976248
450, 63.48530800467961
451, 78.75862688653069
452, 78.32200821588958
453, 64.52692449839924
454, 64.11992920608463
455, 79.98667914439648
456, 80.24133606573741
457, 54.75438318742272
458, 25.498469180100074
459, 7.35312338246149
460, -4.515595142916936
461, -14.267171998541016
462, -18.725593898521765
463, -11.171265102577308
464, 2.539947669061803
465, 4.31722695938879
466, -4.200569585085759
467, -8.093729648688168
468, -6.304139716965437
469, -4.297828389371716
470, -3.2833694452492637
471, -4.218999782429819
472, -7.57669785701728
473, -9.010028734015577
474, -5.555935146423508
475, -3.3213555852144054
476, -9.486833271854266
477, -17.543028957990828
478, -14.608758771788416
479, -5.070599193701128
480, -3.6146585279129795
481, -8.562576533624451
482, -6.654081653323374
483, 2.7709855461471307
484, 6.406299441006922
485, 1.3885405133078166
486, -0.5414621733507374
487, 4.90539127570446
488, 7.919750851855497
489, 2.2306480430288502
490, -4.81486213891003
491, -6.372035353364481
492, -3.6376359377591143
493, 1.8530734600408323
494, 7.116969058270115
495, 2.380512733298019
496, -9.223793759299951
497, -13.852785215329277
498, -11.971607940693502
499, -16.171485231279803
500, -28.603036887570852
501, -39.00090912530686
502, -44.38570600847743
503, -33.12290161396777
504, 1.9289638997615839
505, 56.20063914504135
506, 128.84160452314973
507, 213.18121185833843
508, 278.71985233026317
509, 330.9417704234784
510, 380.7526178077296
511, 430.4306971022834
512, 485.944252093208
513, 542.5104156613907
514, 576.065984455674
515, 586.2452232531996
516, 593.1183866370138
517, 600.164224794129
518, 598.4232341019124
519, 584.8412270076406
520, 552.6905502576101
521, 498.8598506391263
522, 437.0211876157864
523, 376.99265089689834
524, 321.9234219008231
525, 275.34654947425224
526, 231.25152159036952
527, 179.3741793285917
528, 122.81298793061251
529, 82.1079489662643
530, 53.076983991650195
531, 30.89778194426981
532, 13.16242595474796
533, -1.944675313472544
534, -15.876056601851815
535, -29.422751075500855
536, -42.85961385970404
537, -42.258972001613074
538, -22.70102778063847
539, -0.919740798550265
540, 15.785081836644167
541, 29.083137543244447
542, 37.395090792226256
543, 37.67983617219397
544, 26.56655673030218
545, 18.733697531950384
546, 32.94218765194455
547, 62.82487972020681
548, 86.39531023965901
549, 102.84989265932927
550, 112.03209604161384
551, 112.71580534892564
552, 99.16893799227546
553, 73.4052262348323
554, 54.69367857691577
555, 45.250388801161535
556, 28.41292059988882
557, 3.2253816938718955
558, -16.79075056282818
559, -27.41903523505607
560, -29.3270441253826
561, -22.524445462024232
562, -13.039256824275071
563, -4.967859158417923
564, 0.7113773243327159
565, 2.639767769471291
566, -0.1914597307695658
567, -9.890193137645838
568, -20.09354679777971
569, -16.489075734149083
570, -0.317804968350174
571, 24.141924244277106
572, 51.99500914213968
573, 65.59744396009773
574, 64.05401989205347
575, 51.95375464454628
576, 31.424747573404602
577, 13.508930264888477
578, 1.7817440949947922
579, -5.736617282203952
580, -9.982602884494554
581, -10.549483799584777
582, -7.196116717579571
583, -0.19147210263326997
584, 10.795367523161985
585, 18.97209051119171
586, 19.79922977813476
587, 14.2129061654432
588, 3.0532363584534323
589, -4.650598742329748
590, 0.9894940825579397
591, 16.75034051331386
592, 36.35122135615893
593, 50.0673590559818
594, 37.523149206817834
595, 8.22785387568183
596, -9.183084659027372
597, -16.191720786384394
598, -18.186814860000595
599, -12.861363457637708
600, 13.764569702098015
601, 58.81509632561756
602, 76.98102589374321
603, 64.34788848921744
604, 49.800554454459416
605, 39.307810206020804
606, 27.832675090530756
607, 14.112520378872432
608, 2.506964353255171
609, -6.961182242257564
610, -11.910282197093693
611, -11.432547074744434
612, -11.295735652289295
613, -14.748346168496937
614, -14.44517557747713
615, -4.848482625986435
616, 1.8482190357462969
617, -5.656913625894958
618, -13.90958692807908
619, -7.216434217609276
620, 8.808151478298896
621, 26.568525095042787
622, 45.46774730346442
623, 66.15984340921386
624, 80.61829152659811
625, 71.10424462110132
626, 42.734121921932456
627, 10.967345096740246
628, -14.269741164465813
629, -9.471279553705244
630, 21.645634872351366
631, 57.53509332790236
632, 89.33307054769648
633, 96.92552205460561
634, 80.19651129135491
635, 54.278934082598425
636, 23.946397605584934
637, 8.366518734555939
638, 7.794381885230905
639, 7.53596858074161
640, 4.570748933423602
641, 5.421793684274235
642, 12.060717822647348
643, 23.655784521753958
644, 40.7255881745441
645, 58.200942748908346
646, 74.61077334434594
647, 78.26934931216056
648, 63.92895813157156
649, 44.37009430022226
650, 26.61163039011808
651, 9.43504294354716
652, -6.9450824918967555
653, -14.227573152082186
654, -5.737587683814127
655, 5.988755114640298
656, 10.467750135065216
657, 11.44113163689508
658, 13.331744273440563
659, 13.34992643710757
660, 8.190459749730508
661, 0.9249645148574928
662, -4.160581437041401
663, -5.674168315168572
664, -0.8519632158640889
665, 9.012446265442122
666, 21.723374568506188
667, 31.704132400225717
668, 29.82437269255206
669, 17.666955492899433
670, -0.7179219078607275
671, -17.667091098061064
672, -16.159273755432878
673, -3.853969887310086
674, -3.282341842979804
675, -9.78947451584827
676, -5.988678621750296
677, 4.195580692492513
678, 3.2752961653259263
679, -4.04497782467115
680, 4.584234544485298
681, 25.585520289099804
682, 31.992374337967703
683, 26.704686680193845
684, 37.47603863142831
685, 60.76001062901378
686, 78.08458529564268
687, 86.40853278458599
688, 82.50649312450332
689, 67.76080123793145
690, 52.6865798864892
691, 37.88328515895046
692, 16.816574086005858
693, -6.668192177014134
694, -13.077944425984242
695, -1.546485198319715
696, 11.025563136328856
697, 22.87118461276623
698, 37.02602701565047
699, 51.65792295041501
700, 44.479009707783916
701, 14.32673938940934
702, -3.9815376949645724
703, -6.075512113973673
704, -7.2814554606866295
705, -10.757512411977586
706, -10.183882502617053
707, -4.613555116724456
708, -2.0351893604292854
709, -2.359799149724495
710, 17.44714608826507
711, 61.91081026194297
712, 85.77363017380776
713, 78.17471137707435
714, 56.524886998535294
715, 27.160294044668262
716, 8.488575415321975
717, 3.4122164406144293
718, 12.867381378955542
719, 36.652443713024695
720, 53.13105113603342
721, 56.35729786914999
722, 49.85066325660955
723, 35.817354198565226
724, 28.980383797294053
725, 35.877010341875575
726, 41.54512164912012
727, 42.43487337258375
728, 40.97691914666757
729, 37.818964758729635
730, 31.639973188783188
731, 22.784506983151005
732, 23.02096080127012
733, 31.60116327099604
734, 31.934311184000762
735, 19.807981236008345
736, 3.9911855895243207
737, -11.84691235066748
738, -21.10631582147289
739, -22.09228634388819
740, -11.706442185291962
741, 9.48094906737424
742, 16.20134621444413
743, 3.255324277199179
744, -9.94358218670095
745, -18.970717706761207
746, -17.065306912763845
747, -2.639751052498468
748, 21.212622817643933
749, 49.628187886131855
750, 48.576131250350954
751, 15.734423215882998
752, -6.8562111428400385
753, -11.692757106635327
754, -4.972656886186087
755, 10.047571396069543
756, 14.94392238927685
757, 7.738846790844036
758, -1.6205608262316673
759, -10.714432895218124
760, -15.548152139775993
761, -14.888215333341577
762, -3.7053861217991653
763, 14.610284779839276
764, 14.538983889391602
765, -1.4361117317293974
766, -6.371537682696726
767, -0.4109116815179732
768, 4.792720857913082
769, 11.009621330365917
770, 28.645100486368392
771, 52.40755722412359
772, 64.61687358172094
773, 63.35730906049321
774, 47.29224883377174
775, 23.292293164889998
776, 13.413192322732357
777, 16.59571215806318
778, 29.91046785151957
779, 42.59925664634102
780, 34.127299404281075
781, 13.056974667857503
782, -0.011323955182888312
783, -7.867146955137287
784, -15.082116667714217
785, -13.66616454384166
786, 10.819711376889245
787, 42.75728743942818
788, 54.91310834691467
789, 60.67356221026603
790, 77.02406676327155
791, 92.66097874493607
792, 95.31032375884752
793, 88.68502030753007
794, 76.24973028141903
795, 65.38796084015303
796, 61.864900123806365
797, 54.97040909995849
798, 37.72652000233575
799, 33.27171972114411
800, 51.72779965660084
801, 60.864086701812994
802, 47.05071544862767
803, 33.4730660232708
804, 29.16898323814712
805, 16.61327490797703
806, -6.846307697760494
807, -14.622894528367397
808, -0.8203048720879451
809, 11.000621269327894
810, 16.697756699824822
811, 27.335253245182685
812, 41.70243323055911
813, 47.52975311159025
814, 45.4281495967698
815, 50.65465710407261
816, 60.66136516019287
817, 54.37590212257055
818, 34.29622388280768
819, 18.362602540002626
820, 8.123569086314092
821, -3.121527346662333
822, -13.582114813383669
823, -16.22542693853029
824, -14.006691520580716
825, -12.873569912555467
826, -8.715512636172207
827, 5.74764737462101
828, 29.803947773587424
829, 59.8778293601099
830, 80.17668239043087
831, 74.11396246912773
832, 51.29312515287347
833, 19.804265876400677
834, -3.5920704454310908
835, -11.46641797058328
836, -1.0468616833331907
837, 29.88745288500104
838, 68.59029650492266
839, 104.21026985458593
840, 118.41082165707485
841, 106.38649572174836
842, 81.41427520124125
843, 48.679721107278965
844, 20.849277257479116
845, 3.4007666015841096
846, -0.8931939699505165
847, 4.048538810980972
848, 0.8797722392482683
849, -8.85827985816104
850, -13.369559890898017
851, -14.245104099662058
852, -17.05030331583839
853, -18.648911706164654
854, -11.888692815089598
855, -3.460522192157441
856, -4.027753174985264
857, -5.8703893325146055
858, -0.143168651697124
859, 5.173750995109003
860, 2.9686670610863075
861, 1.3374029515671282
862, 5.244897541368118
863, 5.479408873201464
864, -1.7578319774711417
865, -7.293442123722343
866, -7.942705383298744
867, 0.03644628150323115
868, 15.34979877364458
869, 15.210161149301712
870, -0.2916361246825545
871, -7.180832161802755
872, -4.224960117882802
873, 3.247824473599394
874, 13.839160825664294
875, 22.760109263639606
876, 23.757499544597522
877, 4.521085397756906
878, -16.637887525501355
879, -14.413605552234003
880, -1.5527942788758082
881, 9.003537462542226
882, 15.645745433103002
883, 16.941395081756127
884, 8.087988259389022
885, -11.21539588675114
886, -12.668272624312522
887, 12.54089412106623
888, 33.48346877893346
889, 41.284136402826334
890, 49.35538002805333
891, 56.212606232396865
892, 41.44437812191427
893, 12.259331109737104
894, 4.0688190884648066
895, 11.195404229829364
896, 15.521002281840993
897, 21.07374020628049
898, 33.9709130261308
899, 41.248771440263226
900, 27.33676500859474
901, 12.362550680281856
902, 13.506952874056878
903, 21.81390728401493
904, 30.409844044541387
905, 29.199248726554288
906, 15.333983477656147
907, 1.136618147840636
908, -10.093461543163357
909, -7.590911700786819
910, 10.38969407098557
911, 43.01329916424402
912, 79.88711152080032
913, 94.99488606682098
914, 93.55118768934881
915, 89.00058499712031
916, 75.83198210129558
917, 46.298688454320654
918, 13.346356489921163
919, -10.487627274997067
920, -22.41925821352379
921, -20.860235425514475
922, -8.319744667316627
923, 15.147008060381268
924, 48.97191722236494
925, 85.88445435663562
926, 96.5391210001726
927, 81.02744514759252
928, 57.59825712825295
929, 34.39997215864605
930, 30.747737374158532
931, 42.135191780767855
932, 57.50547564686349
933, 64.27933138620574
934, 49.60986325827798
935, 23.78130861319005
936, -3.3966983761656593
937, -17.554129721236677
938, -13.686259658448762
939, -0.5404571081398899
940, 20.043623680216115
941, 46.15799278540908
942, 70.03849048400843
943, 72.29584110956057
944, 56.65368230899003
945, 36.84693524160684
946, 16.230980217096658
947, 0.6915273439281009
948, -9.223083933537055
949, -12.614141336989633
950, -13.526202467923213
951, -13.865940788107764
952, -7.310420113939472
953, 7.466884160256086
954, 17.356243028511017
955, 18.073496684850397
956, 8.792341737898823
957, -1.834142309755407
958, 8.960745929996847
959, 33.60420427106146
960, 51.81879324381043
961, 59.299089387090135
962, 51.63704731071812
963, 28.12349349727083
964, -10.059164764219531
965, -27.04826510926432
966, -12.476880866550346
967, 5.202756205449987
968, 19.586605906035402
969, 26.68353220246172
970, 23.491208163048213
971, 2.2556695762323216
972, -20.265703639179264
973, -14.16910414769518
974, 2.6498979718253395
975, 10.601765380173674
976, 13.127954949999548
977, 12.26799169935839
978, 2.0487824311549048
979, -15.6564733212399
980, -9.907406758286015
981, 18.56164181139866
982, 31.876062654915586
983, 28.50554538914548
984, 16.8488059525298
985, 0.18573663093047799
986, -17.048579608248474
987, -25.30917592817059
988, -16.259451033181904
989, -7.88162111597012
990, -7.850961393058242
991, -6.15827936372807
992, -0.2798437247474794
993, 7.249457749334397
994, 15.473774758538639
995, 21.32409458753682
996, 30.112134802839137
997, 52.059874714594116
998, 79.45532735221968
999, 107.0441120252217
1000, 125.09128466119182
1001, 127.6817378239648
1002, 109.07009662953897
1003, 71.08392266265582
1004, 37.26061993710573
1005, 12.745156798246171
1006, -14.371199505818367
1007, -34.07110242500676
1008, -22.124188264771874
1009, 10.143209174890217
1010, 51.568848693661494
1011, 75.38965917851783
1012, 68.51729944956969
1013, 49.74362463456964
1014, 27.128329817160193
1015, 16.367742697475478
1016, 22.688657650560344
1017, 59.89280268699258
1018, 100.60110729803273
1019, 98.9573159751344
1020, 78.80613750152952
1021, 62.66087216075721
1022, 45.177166293498885
1023, 25.474010432124487
1024, 24.079251959221438
1025, 39.96242293553769
1026, 43.17136828576622
1027, 31.401424987670907
1028, 8.16156894031701
1029, -10.726846955834844
1030, -6.829851563265038
1031, -0.0066023018189298455
1032, -3.1862839264213108
1033, -6.843693541532048
1034, -7.602689629477027
1035, -4.837580359526328
1036, 2.38383796972812
1037, 16.583616009455
1038, 28.826044170718887
1039, 22.94278011134702
1040, 11.13654773034068
1041, 4.76354980841279
1042, 0.7830535552093352
1043, -3.5910712066197448
1044, -15.675973007086213
1045, -32.60943404230056
1046, -31.768091976366122
1047, -17.766250602035143
1048, -5.415139582883057
1049, 2.8028822349406255
1050, 3.807350142567884
1051, -9.66387978997409
1052, -39.618826940102736
1053, -57.83445240080982
1054, -60.88801504596995
1055, -64.80548488363274
1056, -69.77428109134235
1057, -71.01747631453509
1058, -67.03390007473172
1059, -56.011347750463756
1060, -49.2303066077875
1061, -51.47083615124211
1062, -45.956686294091924
1063, -28.002822475798894
1064, 1.016518043463293
1065, 47.67565265489429
1066, 126.18776035391966
1067, 229.55017556202074
1068, 351.066898396366
1069, 518.8022910515028
1070, 703.8213551151111
1071, 882.3912669755391
1072, 1047.6634160303947
1073, 1197.0268530445865
1074, 1323.9111210973151
1075, 1415.1023637734597
1076, 1464.9549711073341
1077, 1467.936351788996
1078, 1413.090259902001
1079, 1299.0360760032727
1080, 1156.1556590298442
1081, 990.0261843909011
1082, 796.4711617475114
1083, 589.3276669192455
1084, 393.1068088912252
1085, 244.64743317218563
1086, 128.17682695724216
1087, 54.401700364576755
1088, 17.46939837996615
1089, -26.03692062242044
1090, -71.82316265528425
1091, -82.8880823751133
1092, -82.27134960359581
1093, -100.10061090231648
1094, -105.53910355632615
1095, -83.64168758071355
1096, -61.17032824423404
1097, -42.98505803163971
1098, -25.410935991065344
1099, -16.88687874470088
1100, -36.1084670226719
1101, -50.41379617316943
1102, -33.74099631115132
1103, -8.354964492011277
1104, 15.058872856585367
1105, 11.995300718836006
1106, -10.561035953669489
1107, -24.67583387722516
1108, -17.3467872015799
1109, 25.933890229744975
1110, 61.38589347474681
1111, 66.33659354335668
1112, 41.47105110409484
1113, 1.268801104409249
1114, -5.657892304022425
1115, 7.731168106191035
1116, 18.12164948222562
1117, 23.852088801386344
1118, 24.122545326878026
1119, 14.397103127610535
1120, -0.8607988744570321
1121, 2.2312623291245473
1122, 12.27008197491341
1123, 2.722754929481198
1124, -8.776009526503003
1125, -10.221638357766096
1126, -8.192848800965294
1127, -3.4672235261050446
1128, 10.007134263799344
1129, 26.137819368088458
1130, 26.83144868292584
1131, 20.931799655908435
1132, 18.98125586113656
1133, 27.810368512089553
1134, 48.67786107091433
1135, 67.11357344191765
1136, 82.52679641818759
1137, 97.46091420722951
1138, 107.69925258128569
1139, 109.59393828233169
1140, 108.43222843062813
1141, 104.44279431237737
1142, 87.86588242147354
1143, 61.00803614019242
1144, 32.4410505711503
1145, 10.54089347988156
1146, -2.3873041762826688
1147, -5.032920496335464
1148, 3.577282062030463
1149, 25.733317308573533
1150, 48.18526979564649
1151, 42.78773592577636
1152, 19.892446987420954
1153, -9.443680162834426
1154, -22.19187153501298
1155, -14.425526968353552
1156, 0.2504545975543806
1157, 19.364572061935178
1158, 38.775516584798424
1159, 38.610072571249475
1160, 7.858923714369666
1161, -8.627656040020156
1162, -5.6270531719937935
1163, -8.180434828215766
1164, -12.816270660522605
1165, -9.77282315408047
1166, -11.229512953298581
1167, -22.02776638466912
1168, -15.567588557390991
1169, 4.5312219963070675
1170, 4.5992427409282755
1171, 4.939402366389913
1172, 34.304469704859
1173, 71.09727391942852
1174, 100.0727692067876
1175, 120.85206684793047
1176, 130.44409609265222
1177, 121.63467170889089
1178, 116.86771661571038
1179, 135.70719693435694
1180, 152.57586441375315
1181, 155.3608164351508
1182, 129.85749952373135
1183, 86.98234938310088
1184, 49.287865244541536
1185, 20.86271390139882
1186, -1.0911644406623964
1187, -10.756701409652123
1188, -9.928349655408056
1189, -7.26000593883964
1190, -4.0123428319720915
1191, -1.1305813315384512
1192, -3.4649686022303285
1193, -11.945402402941
1194, -19.189477050565984
1195, -19.144689381945682
1196, -0.7121298710189876
1197, 19.111351849590392
1198, 26.55125960251371
1199, 20.26592492616328
1200, 5.262784172508873
1201, -0.1135717059532908
1202, 6.8099182312416815
1203, 28.38584841164902
1204, 51.02754529061713
1205, 67.1589626934192
1206, 65.68888240402975
1207, 56.217187403633034
1208, 60.34175222298745
1209, 49.79316283480421
1210, 10.731524746131981
1211, -7.1693405568357775
1212, -2.5174878116749824
1213, 0.0771026172233178
1214, 8.3772686765451
1215, 30.547710355655
1216, 29.739205916934225
1217, 2.1578703865252464
1218, -12.14177783379182
1219, -11.431927878088572
1220, 1.6548308205019566
1221, 11.216788558831468
1222, 8.594902636429651
1223, -3.953509736088563
1224, -20.035533406576178
1225, -27.309908452706622
1226, -15.41708444496544
1227, 19.18275652416014
1228, 27.00594656798603
1229, 7.74435915957838
1230, -0.986085685618491
1231, 3.9477703487400504
1232, 23.455919157368044
1233, 39.38602499530771
1234, 42.319582114018885
1235, 18.827881713899842
1236, -9.31320691068413
1237, -12.855106049211827
1238, -6.000289828757559
1239, 6.073749564560785
1240, 25.360659917031626
1241, 52.24705093670036
1242, 80.91719824072516
1243, 89.66560959618619
1244, 70.10582023686311
1245, 42.40494318765923
1246, 17.745599238780414
1247, 13.513041990517195
1248, 25.524826107643094
1249, 49.308035600527546
1250, 59.09332537626051
1251, 55.47229403656365
1252, 51.82594228398739
1253, 49.0141354694897
1254, 46.56234215080349
1255, 38.030545958265066
1256, 27.60958821129134
1257, 33.92651031615242
1258, 54.32613071617561
1259, 79.40224289706293
1260, 82.39732106227711
1261, 59.74174033744657
1262, 23.083439660935255
1263, -1.013388063110142
1264, 6.537844698884328
1265, 37.740873675024886
1266, 74.96962539170454
1267, 71.99137832370616
1268, 44.66188740532107
1269, 14.118446766205125
1270, 3.760645939832102
1271, 13.238480580347641
1272, 22.90784488528061
1273, 26.402935967498706
1274, 20.56983211556235
1275, 10.14940101027969
1276, 1.665733310588621
1277, 7.601555797293258
1278, 15.507302035018256
1279, 11.175841280934947
1280, 6.322243257054652
1281, 1.3855819706650436
1282, -13.698873656539035
1283, -22.371838569083593
1284, -9.84901779899701
1285, -5.251374226707412
1286, -10.26481035643701
1287, -5.213218530810991
1288, 1.4835705974819575
1289, 3.372348491482626
1290, 21.39209994685916
1291, 44.0058656600022
1292, 25.807541473006495
1293, 7.342346418528905
1294, 18.21074245458385
1295, 13.836637702776898
1296, -1.7457767741625503
1297, 5.276695508346165
1298, 5.74678990907978
1299, -16.216223459984576
1300, -20.20109541484817
1301, -10.654385424772045
1302, -11.51681951062983
1303, -6.033119529871328
1304, 12.556472847054465
1305, 23.3372348130315
1306, 21.177993403792243
1307, 3.937993346422445
1308, -9.987181543495353
1309, -13.928738367316328
1310, -9.260687804801819
1311, -1.2905344750033692
1312, 3.5862605579468436
1313, 9.890019495852357
1314, 16.71094966372857
1315, 16.962247734827542
1316, 11.066543647525577
1317, 1.5555412606909158
1318, 5.185748218292247
1319, 15.789809684843021
1320, 3.7466638463492927
1321, -7.516428546664429
1322, -4.992510344973198
1323, -12.690828765502374
1324, -14.838849012059654
1325, 27.715216311772565
1326, 46.627787128419186
1327, 18.383147200304848
1328, 4.5267337788345685
1329, 2.79170781837729
1330, -0.7097410444766865
1331, 11.904485324900634
1332, 37.61014353927203
1333, 39.28849366427585
1334, 29.45133344682199
1335, 21.72879778164497
1336, 16.592476926671225
1337, 12.655026600889869
1338, 6.516554824772356
1339, -4.5425921541400385
1340, -19.218705960424813
1341, -16.003756244647775
1342, -1.863094766154063
1343, 9.804080786475424
1344, 29.972561538955233
1345, 48.58415364370376
1346, 23.437714560603126
1347, -1.8875005617956049
1348, 7.469252575716382
1349, 9.399983343881104
1350, 9.27841544398234
1351, 36.157318229188604
1352, 37.83197238244156
1353, 1.3528882802165754
1354, -10.396713437656217
1355, -6.885584198131255
1356, -6.05402912228692
1357, 3.947131570114834
1358, 22.011097185086328
1359, 32.82569524614519
1360, 37.69706635075727
1361, 37.874448350803505
1362, 32.660373456408706
1363, 23.951953976216828
1364, 15.048428041896841
1365, 12.828870622902286
1366, 16.831418358913652
1367, 18.961522098556088
1368, 19.17137176808501
1369, 17.91731112376783
1370, 16.010719586724917
1371, 11.77251251394864
1372, 3.997855285715559
1373, 6.264973701207964
1374, 22.07879083687476
1375, 42.373293584296334
1376, 51.46972386031575
1377, 38.46755172459598
1378, 13.041805060200204
1379, -5.38426762225663
1380, 8.092481447016326
1381, 32.26722444452935
1382, 56.55693147681359
1383, 65.27969519280305
1384, 66.23163073175601
1385, 67.32427180316154
1386, 75.00734355837358
1387, 86.64873493516734
1388, 94.9782172854384
1389, 81.15903830512161
1390, 53.67966970819725
1391, 64.76217312363679
1392, 76.83323248291981
1393, 71.74651601720598
1394, 89.030609885378
1395, 99.67607076111017
1396, 60.56724326087533
1397, 50.36546145454213
1398, 65.84906781351674
1399, 37.00669691287021
1400, 12.316519963133032
1401, 12.824123973297901
1402, -6.052289156379629
1403, -18.967857939236637
1404, 2.2325913325366855
1405, 10.591224179161145
1406, 5.452003484437228
1407, 8.774189550140363
1408, 6.9973404882257455
1409, -1.0915221659415693
1410, -0.534257613925547
1411, -0.5599297198486965
1412, -6.982639269794163
1413, -9.11633011001959
1414, -9.98566997310536
1415, -14.694661651059505
1416, -9.792470981113183
1417, -1.6769609156399383
1418, -13.24077856477561
1419, -21.789809201757635
1420, -20.48761258860486
1421, -24.738611017201038
1422, -14.755277499016302
1423, 20.045858114447583
1424, 32.28752316453847
1425, 28.87784138977804
1426, 29.87236157768166
1427, 22.96286067654819
1428, 12.347472255836692
1429, 16.10207546411766
1430, 27.156030442755764
1431, 39.30156238503696
1432, 49.38372439187606
1433, 46.36518282052202
1434, 24.977399050394524
1435, -0.9968258669714487
1436, -19.18485340426014
1437, -18.871631446338142
1438, 3.9844058283379127
1439, 32.75745378258944
1440, 32.06758930325486
1441, 17.863255498384206
1442, 4.44507228999737
1443, 13.727371322835097
1444, 27.56126526364187
1445, 33.601201649746145
1446, 32.419648919551946
1447, 17.81590355190474
1448, -8.51349941364424
1449, -6.42564624455099
1450, 3.762391765263601
1451, -6.942431907559694
1452, -3.9560157975784023
1453, 7.784428273709636
1454, 4.765819825298422
1455, 7.836200272132373
1456, 19.656611177493687
1457, 26.72484110379446
1458, 22.84605370362624
1459, 10.277817044951917
1460, 7.305440873824409
1461, 7.028634032676564
1462, 8.01064021637012
1463, 29.882988752226083
1464, 41.492160854260874
1465, 19.518716470499385
1466, 16.56329719869882
1467, 23.730801660041834
1468, 15.503045166155971
1469, 20.673864546166442
1470, 25.382581495315208
1471, 0.45700652455707313
1472, 10.38370518175634
1473, 51.321457622941125
1474, 63.32395513913889
1475, 72.85845014962706
1476, 82.49686581302922
1477, 64.54897391668328
1478, 48.614341645444256
1479, 47.09271134037044
1480, 42.52253015419865
1481, 30.4241057698664
1482, 12.916795288786489
1483, 10.235270953065992
1484, 9.773649720203139
1485, 2.8416366215515154
1486, 12.724832612710998
1487, 18.85869282197382
1488, -0.8136484647930047
1489, -15.230635935723512
1490, -14.43770183770448
1491, 6.029655324602572
1492, 25.564297256305508
1493, 32.22037051092775
1494, 17.99489380849809
1495, -2.436736856439893
1496, -16.068990310523077
1497, -7.9604522340378026
1498, 15.953231791883809
1499, 43.23890176186251
1500, 46.39288440918881
1501, 42.34584746244218
1502, 37.724803556659026
1503, 32.03605850022086
1504, 28.99449243283925
1505, 26.18991728603487
1506, 12.64736984215142
1507, -5.773937377787661
1508, -19.32850670489006
1509, -2.440614275079497
1510, 20.43140876198504
1511, 33.08325284607963
1512, 30.614396374463468
1513, 11.905681025969898
1514, -14.052281036568274
1515, -20.339189029993577
1516, -6.669986148292992
1517, 21.186503751405326
1518, 40.67294328900789
1519, 45.494758761013145
1520, 32.97183016116378
1521, 3.254530453975349
1522, -5.825135797975236
1523, 17.25061544872551
1524, 18.461911389977104
1525, 14.791400501842872
1526, 16.931875518564993
1527, 2.129548290900857
1528, -1.8566586519045813
1529, 12.042901096077003
1530, -14.777491677677972
1531, -26.301168043659345
1532, 4.953737925937276
1533, 11.378084906379627
1534, 18.65895234960317
1535, 39.48567355909745
1536, 36.416325095246066
1537, 27.415039939678536
1538, 22.63954182514135
1539, 3.6783832741084552
1540, -3.491418575521493
1541, 11.776633642669367
1542, 26.816354399696138
1543, 31.861795693860586
1544, 23.42466001136836
1545, 2.927712713519213
1546, -16.47808429215638
1547, -28.727347522166383
1548, -32.23379821543949
1549, -16.63534721482847
1550, 14.732900540277114
1551, 32.96321873520537
1552, 40.88428270791974
1553, 36.97315395584701
1554, 11.688322902240543
1555, -19.680226179444617
1556, -47.15230183195672
1557, -57.24864198768773
1558, -53.88325006980449
1559, -42.01268303647248
1560, -29.925716676067168
1561, -34.47168754526501
1562, -50.108185526484704
1563, -56.52239454564733
1564, -45.05925717388709
1565, -22.435471066855825
1566, -1.6106753191052121
1567, 23.542835101494347
1568, 51.64750051351257
1569, 84.78042747777454
1570, 163.76987933190958
1571, 288.0967623984534
1572, 454.10076052044406
1573, 632.5064201818905
1574, 794.2650969994365
1575, 919.9862071707112
1576, 1028.2444093518852
1577, 1107.415581229373
1578, 1139.5693535645314
1579, 1094.3226409281451
1580, 993.8206138100668
1581, 864.6148442461545
1582, 743.7862327305147
1583, 620.7715338926055
1584, 479.45390844337
1585, 299.6780939747887
1586, 154.1861491975551
1587, 48.89060506242822
1588, -14.768828932924407
1589, -34.667116460127545
1590, -38.87525544603159
1591, -56.565232558367825
1592, -54.965482587215774
1593, -48.76128985438845
1594, -49.97473590552727
1595, -33.47032098052841
1596, -13.726142645062282
1597, -2.3117020337804206
1598, -2.360561031137877
1599, -11.81490429447149
1600, -23.824958007594432
1601, -23.32558254245123
1602, -0.8520340102395494
1603, 20.86055932045292
1604, 0.6515903055260424
1605, -15.625960502244197
1606, -25.32213023278382
1607, -32.74950621836797
1608, -15.358475104053468
1609, 2.8062887028436307
1610, 5.2677740840363185
1611, 7.925840193379372
1612, 17.412210221441455
1613, 29.941476368949225
1614, 32.22767197695612
1615, 35.15016533330163
1616, 30.780805013870122
1617, 4.054327351943357
1618, 0.9528587931545189
1619, 7.339754711431851
1620, 0.10435125684489321
1621, -1.3159610091934155
1622, -1.5381238450709134
1623, -4.716776152119564
1624, -8.213769318605046
1625, -6.1720326338499945
1626, -2.9876337665746178
1627, -11.46104782167913
1628, -10.3010219656544
1629, -2.93623817842672
1630, 0.5909685790538788
1631, 13.063118355993538
1632, 25.29803846514369
1633, 25.796630364603516
1634, 5.444923162273881
1635, -2.345992967053462
1636, 7.184195834699494
1637, 13.040335903809137
1638, 17.695675120506166
1639, 12.403698363335934
1640, -7.591340832199421
1641, 3.3412655911497495
1642, 16.053815514030248
1643, 5.544190311644343
1644, -17.386940164508815
1645, -24.916561160690435
1646, -8.447202265711894
1647, 23.26831439382113
1648, 29.126762482374033
1649, 4.112853903436189
1650, -36.48304497704521
##END=



