a,b
320, -52.055252489191844
321, -38.641371898687794
322, -23.731442649661403
323, -7.782381403379986
324, 7.321859015186419
325, 16.97912558815915
326, 20.573523663179003
327, 18.992310815687233
328, 15.421447379050733
329, 21.11495982530687
330, 39.51584017605455
331, 70.0360744619611
332, 107.38955208027983
333, 139.4257045206523
334, 150.7676425912632
335, 145.9390604112341
336, 137.54834401804874
337, 126.10729080272722
338, 110.27203788940278
339, 90.83192030564715
340, 96.30778113969609
341, 134.6025581031481
342, 171.680348371101
343, 187.4631039265514
344, 189.33145879694166
345, 190.9511894250645
346, 189.98422574493452
347, 176.09777429840506
348, 149.15434750621898
349, 117.65625641943006
350, 83.88633773850961
351, 55.476059679263926
352, 41.90673654330021
353, 36.326755000905905
354, 31.956555597402257
355, 30.572869757188528
356, 34.3048307642548
357, 39.984151751770696
358, 30.426425641842798
359, 5.458860684393585
360, -5.678694991807788
361, 4.39439407154714
362, 12.054764193828305
363, 1.3871603012630658
364, -14.226082819930525
365, -18.21777413682139
366, -15.066330129446214
367, -16.148274755338207
368, -21.1591182870161
369, -24.110960119556694
370, -23.60259955446236
371, -9.587777737073338
372, 22.544226584459466
373, 46.669839408566986
374, 44.12178014866913
375, 27.824981574243793
376, 16.786103016469497
377, 7.998220408304405
378, -7.033589376598684
379, -26.71709229930275
380, -30.68402922700261
381, -16.86047041842903
382, -4.006024489957781
383, 2.241133665002053
384, 4.472041485596492
385, 3.7938446287698753
386, -2.22764768464549
387, -17.254078658883373
388, -36.740237896365215
389, -45.8891055880722
390, -45.466284402464225
391, -39.92078956389196
392, -29.838102082518162
393, -20.25926564848851
394, -12.144829001850667
395, -7.107865509246039
396, -6.091020773021228
397, -6.456588209615802
398, -5.1731246166218625
399, -0.024820784137773444
400, 14.372327841865626
401, 40.14909259363412
402, 82.06837583985362
403, 142.65948767806367
404, 195.08892454180022
405, 234.93173162877065
406, 270.0546266170095
407, 304.1844383831303
408, 337.20320761343464
409, 369.00355503973515
410, 396.1187816241909
411, 412.36308350399486
412, 418.5055313485318
413, 417.49006004624425
414, 412.4358182491269
415, 421.924682163175
416, 447.9803423458452
417, 470.7595800329
418, 483.5145991173267
419, 485.5832481505804
420, 476.55383103975873
421, 459.45732817458156
422, 437.93758179879296
423, 410.06415672066396
424, 371.5320605866691
425, 326.46486669781916
426, 292.1382905107621
427, 268.3185559674366
428, 238.6816023931333
429, 199.80521749046784
430, 153.55021805918477
431, 100.71040876262487
432, 60.054005314957976
433, 33.628041864993065
434, 15.952822658568039
435, 1.4900751270652108
436, -6.055148432658825
437, 4.843887750748763
438, 27.639993729995695
439, 27.414586441320353
440, 4.673643557156538
441, -4.774967043493234
442, 4.520581845046763
443, 6.806835976241928
444, -7.838599843273187
445, -17.271828040817127
446, -6.424243342657064
447, 10.82834326545526
448, 17.550695279791398
449, 22.294768162342734
450, 42.869254123252176
451, 72.6777162120743
452, 93.00716236526387
453, 102.148041767221
454, 100.67142988413798
455, 89.56258250686369
456, 81.70303903308195
457, 81.2571712788631
458, 83.03300513902832
459, 84.11702433275786
460, 73.72076499729337
461, 41.22818901939354
462, 1.3780894193077984
463, -20.258119690483
464, -27.60154688208604
465, -27.734943765650314
466, -21.27524315043229
467, -8.578496271771655
468, 9.875503285125887
469, 21.169445565888964
470, 21.27712543170128
471, 21.110408844799167
472, 24.973050187692934
473, 25.25516242041158
474, 16.908031201634003
475, 2.5198760208695603
476, -14.68734952138766
477, -29.169805571627876
478, -28.445923676255916
479, -15.327890900021885
480, 1.4363791587438755
481, 20.15035430131138
482, 26.93487806673511
483, 21.032560676077992
484, 13.6939018791345
485, 7.779636202387337
486, 6.17243755101299
487, 9.58496437319991
488, 21.521859746897462
489, 43.03535820851357
490, 58.70334426707632
491, 52.18248070266782
492, 31.055884475103085
493, 8.487791498986553
494, -12.228115244586661
495, -27.11324819141737
496, -36.980968255142216
497, -41.368218223280564
498, -40.76360594297148
499, -36.691696796697215
500, -29.759755742546986
501, -28.93343309568445
502, -36.47236257646546
503, -26.957635631695666
504, 13.429533016525966
505, 57.68189055232324
506, 80.3020430502147
507, 88.80584927443124
508, 92.6899817459016
509, 95.42548241339864
510, 113.32627046092966
511, 150.98186864631134
512, 220.00991980103754
513, 301.40670178316395
514, 374.6212498526438
515, 435.1897206008289
516, 468.95632629332795
517, 474.60701677650286
518, 474.007898067779
519, 473.4975001413095
520, 454.4535250162444
521, 408.1908296460406
522, 361.50971668137936
523, 333.6558437616204
524, 307.7258950554333
525, 264.75613600143333
526, 214.45876356044573
527, 173.4377557942862
528, 137.00969840858306
529, 92.65150147732311
530, 51.98602765612668
531, 21.993252223130185
532, 1.4940799479554698
533, -7.174541554375537
534, -5.1206351572873245
535, -0.519785048054473
536, 4.616180739736592
537, 3.1875941380585573
538, -7.384037621541211
539, -19.370174348094224
540, -29.445322991130524
541, -25.84626412088255
542, 1.2230203019080363
543, 30.02792600630528
544, 33.34827476452483
545, 22.104536423679747
546, 14.075156724939006
547, 9.140006842497314
548, 2.687754726228377
549, -0.14147848295033327
550, 19.94374286780112
551, 59.179713603030905
552, 81.06326902860928
553, 82.72864647223287
554, 75.15882863561092
555, 60.463173605172415
556, 38.509140815905994
557, 9.98688521186341
558, -9.828128887385901
559, -17.44528438973066
560, -16.0880846046839
561, -6.990507436310509
562, 1.037776077468152
563, 1.4886576381213672
564, -1.8068179592737579
565, -5.095359109371202
566, -8.789088683282898
567, -13.38618330886311
568, -16.285478284888086
569, -11.389216224977645
570, 0.7246101568471204
571, 17.6748094833074
572, 37.12932980100595
573, 51.20559363839311
574, 57.14960879087448
575, 44.4337658393797
576, 14.993629903679903
577, -3.091704788235802
578, -6.890871823849011
579, -5.732677307307313
580, -1.8521802009236126
581, 8.523755058753522
582, 27.391565382595218
583, 42.25839912826086
584, 47.32224161344857
585, 46.19516029701117
586, 41.28324724748927
587, 30.496688081684624
588, 11.959989962751933
589, -9.31064954545218
590, -30.77654086158327
591, -42.7678087851873
592, -27.344720828115896
593, 3.2128920028299035
594, 22.175337740156465
595, 29.58614997809127
596, 29.077377748337312
597, 22.093920486708157
598, 13.01591258447661
599, 6.5801326232467545
600, 16.199852553789242
601, 41.10522836520977
602, 58.46641048032325
603, 63.71086144613582
604, 48.712151710440594
605, 14.424864402253661
606, -5.902159104723978
607, -6.318228759218982
608, -5.282136947851541
609, -8.828718580518398
610, -3.097712784707255
611, 18.377229479712696
612, 25.706200363727476
613, 1.9077010639866785
614, -19.081051318140453
615, -15.179210366279221
616, -10.301918007371569
617, -26.081343713198294
618, -37.56605579021016
619, -15.052233349280868
620, 22.147132773790872
621, 46.2295346330302
622, 59.474986924466066
623, 70.46870877195397
624, 75.49226798410564
625, 65.9563418777525
626, 45.24457297054505
627, 23.277066336144344
628, 7.252251876934679
629, 9.67769774673252
630, 28.376812149699617
631, 51.28237106427332
632, 72.38948327532125
633, 83.32798831480795
634, 83.39916980702947
635, 75.03243111975098
636, 59.94054974126266
637, 47.796469165650706
638, 40.03241370301657
639, 31.793831789213073
640, 21.877007850345763
641, 12.228154406318936
642, 2.2358882633616304
643, -2.4722622454701195
644, 0.000842250612549833
645, 11.862686526837933
646, 34.372968007752206
647, 44.28093059685307
648, 31.606185814331184
649, 17.0323446817456
650, 11.790672864341104
651, 4.21929188095055
652, -14.529704121072427
653, -19.475601779658973
654, 8.897631335941696
655, 42.83223551619449
656, 54.792574415967465
657, 49.92111797421967
658, 33.45759617848853
659, 12.489044604639275
660, -3.3391132488523
661, -11.141127535196574
662, -5.628748398325115
663, 5.480556288144726
664, 10.39715409802011
665, 9.601751090665857
666, 5.164968120163394
667, -0.7909803149850632
668, -4.224054634685672
669, -5.374912755440164
670, -4.377508069141186
671, -1.2047032273167133
672, 4.283362098120051
673, 11.62450372785861
674, 17.644237576383603
675, 19.44530504454815
676, 8.726703424077641
677, -8.277250389897745
678, -13.459027610144403
679, -6.883221571119066
680, 7.933869906906693
681, 29.90545190767625
682, 49.439703794256275
683, 63.833146749806474
684, 65.25104201275099
685, 57.085978808116124
686, 60.11322869760443
687, 72.6570308309183
688, 71.65327039412477
689, 57.115482466299
690, 48.08510201430181
691, 45.45882727217213
692, 36.240246357321666
693, 21.727059033537444
694, 27.540851154046322
695, 53.468301566357695
696, 60.0619533523477
697, 42.866210440315626
698, 23.32528254861063
699, 5.983926251257799
700, -8.210167507399092
701, -19.27500625799439
702, -16.650338116567582
703, -0.25714427139246254
704, 4.246786294803314
705, -7.337386591738323
706, -15.841745040723254
707, -16.339790778751194
708, -2.8925131934374804
709, 26.08448912318454
710, 58.620424298002035
711, 87.3518262405396
712, 104.6849021959606
713, 108.03256517978116
714, 92.2144775011293
715, 58.108471465222465
716, 34.95026362961653
717, 33.24698822791834
718, 28.593695142730212
719, 15.612390233098267
720, 7.8016607912722975
721, 7.175354227010757
722, 2.5773456183487724
723, -8.030453921957815
724, -1.5606890167910024
725, 28.16820109852233
726, 58.62636516996281
727, 78.94582796857685
728, 87.12596245535497
729, 82.59225230302582
730, 65.89779295383596
731, 38.47064346747902
732, 16.25507965007273
733, 5.653515515521576
734, 4.977084407033544
735, 13.588124878604503
736, 27.760100009796588
737, 43.50341518373352
738, 45.90599033887156
739, 32.37910259876662
740, 21.381868378266518
741, 16.834596613825852
742, 6.053348400388131
743, -12.403743603372277
744, -26.73581200080116
745, -35.00420911461697
746, -39.520823421558816
747, -40.04995706334921
748, -27.175975130843653
749, -0.18401250127499225
750, 19.90481522311711
751, 29.17340841067744
752, 38.73939461155169
753, 48.89076500126066
754, 44.37383360420972
755, 24.714435893502014
756, 7.517645241399805
757, -3.2783987937800703
758, -9.527848346149767
759, -12.342768396001702
760, -14.048169532454267
761, -13.674283888980426
762, -3.289295955812122
763, 16.60321562786521
764, 34.592298468855006
765, 47.67418583362269
766, 57.9715269894059
767, 62.990769255597115
768, 51.32883377696089
769, 31.132538434565504
770, 41.032594252834315
771, 68.98284450316532
772, 72.42283939332447
773, 53.818279781669844
774, 32.08263405195066
775, 11.626002217546556
776, 2.2297768731677934
777, 1.9875282714947389
778, 7.067276233823577
779, 12.411100154620726
780, 4.9584213933230785
781, -7.800120845691708
782, -11.740183925461679
783, -7.171710414193512
784, 5.667672180057707
785, 23.375823873182526
786, 37.79015574374171
787, 44.89842411263089
788, 39.11007974258973
789, 31.257843571507692
790, 38.06297137983529
791, 51.933279098280764
792, 67.9928323176955
793, 77.00172540404492
794, 70.43994637019205
795, 57.53387256919814
796, 45.596558505474604
797, 33.66217761720145
798, 21.164690332223472
799, 15.733730854466558
800, 19.751009606767184
801, 20.360404194569128
802, 12.445719400702728
803, 11.373995272730099
804, 22.422781684115762
805, 31.630337085285646
806, 33.911282267652496
807, 24.558652234018155
808, 4.352585849328534
809, -2.8470100256454316
810, 6.078128050530722
811, 12.636494943693833
812, 12.684731838869993
813, 11.183623739407267
814, 10.679564635513088
815, 13.919926970263987
816, 22.878429940683418
817, 41.5795718961017
818, 63.30021694712923
819, 61.48503289760629
820, 38.82008914896869
821, 10.435317624262098
822, -15.93850306566128
823, -29.00105908189653
824, -26.49399498731873
825, -2.25771127160624
826, 29.97980774653479
827, 43.590153714432745
828, 45.79202398153757
829, 46.68688703450607
830, 36.758652549033286
831, 6.005915647980146
832, -15.153147339058705
833, -4.48671684234796
834, 13.465653190043668
835, 24.04175819282682
836, 41.453713360207985
837, 69.12007011833339
838, 82.63704490975215
839, 73.43330167214299
840, 65.63666440164525
841, 65.23398583369999
842, 51.30798340024194
843, 21.659790536441506
844, 2.9444267987400963
845, -2.8082154757266835
846, -2.245789829903515
847, 3.6192592081333714
848, 14.819749605405377
849, 30.773177513621704
850, 44.597763491907244
851, 49.80611144229806
852, 30.894981623157946
853, -0.19127924724125478
854, -18.273471349313695
855, -27.171838697362546
856, -31.87361640146628
857, -27.014854158303933
858, -5.413680000925524
859, 12.936194481288112
860, 10.10727112805398
861, 5.196492154367661
862, 10.51644908124399
863, 17.809001102557886
864, 21.983768197336758
865, 25.885063287039884
866, 30.359483121652374
867, 33.433426052743016
868, 34.293616954575555
869, 30.922039975454027
870, 23.592798773295726
871, 15.80616152678158
872, 8.263001786590394
873, 2.5521547788612224
874, -2.0223315732637275
875, -6.467843258982612
876, -10.214493704264896
877, -11.486022656374189
878, -10.524704521896638
879, -7.504256969246853
880, -0.70529331101352
881, 12.041998174134278
882, 23.526019600594736
883, 28.16194014035318
884, 21.63233400533136
885, 2.554965335120869
886, -9.416136156431094
887, -7.716584703566696
888, 9.399478964443915
889, 39.96130091075429
890, 53.05505844574691
891, 45.04337932919407
892, 27.398570643943458
893, 7.976216937240679
894, 9.261434714664574
895, 27.263410203502644
896, 46.58030394707748
897, 56.18883556387482
898, 38.204387656060135
899, 9.718743886676748
900, -7.504763828817886
901, -8.60397826084045
902, 11.101879827530865
903, 31.984081890792368
904, 40.83482618747621
905, 34.02165737436371
906, 12.437463775373544
907, 1.2238253265277308
908, 3.3492454016031843
909, 4.491569083940703
910, 5.113623597218975
911, 17.69698522213912
912, 38.19118039168279
913, 45.578227656689705
914, 48.87996306905916
915, 68.19682766892583
916, 77.40193823884874
917, 41.27144692962975
918, -0.2763546806345403
919, -13.23581051738438
920, -11.925917565904456
921, -3.409382448588076
922, 16.445385781595178
923, 47.718719104006595
924, 57.84987184694546
925, 44.32789338068869
926, 38.40956601850121
927, 46.87831461123096
928, 57.86368934656639
929, 69.27136543231427
930, 77.81143242943472
931, 85.00509377372691
932, 93.58970695505559
933, 88.71500725974147
934, 55.17438474793562
935, 18.039895834657727
936, -4.541832174742012
937, -15.560472332488644
938, -15.344484632292733
939, 8.05223769942495
940, 53.35095349727453
941, 76.99331800496293
942, 78.51136191047408
943, 84.17218606898678
944, 87.6451755547314
945, 67.18051906078472
946, 38.01347533394801
947, 25.454566093285393
948, 15.442306229200767
949, -8.700029738864032
950, -24.572373837443592
951, -20.22545213484773
952, -12.944460887543755
953, -6.547111822899751
954, 17.07214060366823
955, 55.39713910588034
956, 62.74069792573755
957, 44.588515256173196
958, 35.486577174819104
959, 33.128146865688905
960, 28.720991907728603
961, 21.82505825307453
962, 12.181433812578689
963, 1.875925036982153
964, -8.817390438263828
965, -4.869646174121954
966, 17.32951108792986
967, 25.371182457431132
968, 14.186499765364715
969, 0.4505954122123512
970, -11.519343436533745
971, -17.135202060644588
972, -15.40665705347783
973, -4.012227154393258
974, 4.198514590845662
975, -5.207083837738537
976, -9.73298932031139
977, 3.8871284971719433
978, 15.665151535897166
979, 18.60206687550817
980, 25.07457165460619
981, 35.892535223527375
982, 42.23259199924905
983, 43.54709954954524
984, 41.21507459804707
985, 28.74493202238409
986, -4.028228175891854
987, -34.29677848488609
988, -44.943319883668664
989, -37.83525684900087
990, -14.549009883277904
991, 4.850222371398559
992, 15.698930483233198
993, 18.362095144593695
994, 21.850377181883232
995, 55.04521770643987
996, 111.3191616868753
997, 162.6338107853262
998, 196.65430321702115
999, 201.357738891189
1000, 186.51998083092258
1001, 159.59266351565384
1002, 147.62269652660143
1003, 152.95139758842924
1004, 134.70467778328748
1005, 90.16452764332098
1006, 34.87714561580651
1007, -13.509981640914702
1008, -34.94684362037515
1009, -31.140542087319773
1010, -2.369510669092051
1011, 30.21308415961539
1012, 56.0098984660126
1013, 67.58882888214066
1014, 65.5680441079221
1015, 61.99873387143816
1016, 55.46414397803346
1017, 35.032468468107254
1018, 16.19484898344308
1019, 19.574747614893568
1020, 40.857761706041856
1021, 77.13027500292446
1022, 111.4184419214962
1023, 135.37851862609023
1024, 127.60582426714427
1025, 88.77670748384662
1026, 49.815216531407714
1027, 19.906237856155713
1028, 14.136312080856442
1029, 16.8605952014168
1030, 6.673599978978018
1031, -9.530550322580893
1032, -26.818552372475096
1033, -29.667205909179756
1034, -15.057221356753871
1035, -2.9625701739278156
1036, 2.5560055635942263
1037, -1.9384906849372783
1038, -11.509279688476454
1039, -16.648049461717164
1040, -8.481684673974087
1041, 20.77484728287891
1042, 29.706939808897005
1043, 3.172290004178649
1044, -16.34161777496047
1045, -22.205198112385915
1046, -21.959870869070073
1047, -17.605795620551362
1048, -11.418305358058205
1049, -12.710089275369683
1050, -31.77660154530531
1051, -42.93513660681492
1052, -34.527010909741875
1053, -27.84334521416349
1054, -27.882535766293586
1055, -32.69023870402634
1056, -42.660473263411404
1057, -59.18141879302675
1058, -70.61557910775082
1059, -62.882125550651836
1060, -58.41463354409825
1061, -67.54463013088025
1062, -65.45440653692458
1063, -45.54032608531634
1064, -9.936134214198319
1065, 47.00954075080335
1066, 137.1163423970338
1067, 253.21008022727074
1068, 388.4281423470111
1069, 569.0317422924181
1070, 761.07296643882
1071, 944.6741753378774
1072, 1112.9516994428595
1073, 1258.741077416822
1074, 1380.6342901750031
1075, 1477.4122849922333
1076, 1534.5945934998217
1077, 1537.6131372450982
1078, 1477.6440945716731
1079, 1353.9170754595198
1080, 1193.7119644232607
1081, 1008.7442031973023
1082, 819.3506881438807
1083, 623.5284973643757
1084, 414.7303289605243
1085, 247.8506543018284
1086, 118.10928384289764
1087, 36.152607073985564
1088, -3.017775562695533
1089, -35.73238267066699
1090, -66.70879710110421
1091, -88.25091291448916
1092, -104.22167926289148
1093, -118.75484586551647
1094, -113.01146835748932
1095, -78.54890883253847
1096, -47.81269973176859
1097, -27.66182349479095
1098, -18.341808637719623
1099, -20.170879660035098
1100, -35.17960986478829
1101, -39.427224452246264
1102, -14.494999244043356
1103, 3.590967431410718
1104, 4.052733608104063
1105, -0.28953885261216783
1106, -7.097337660628909
1107, -16.370927077077795
1108, -18.577524164476927
1109, -2.6287979272237862
1110, 3.3312422219396467
1111, -11.229326836704786
1112, -13.477702228100497
1113, -2.142787969607525
1114, 3.220284439432362
1115, 7.131835519238848
1116, 18.537034734154986
1117, 31.544910013501976
1118, 41.45960397548606
1119, 32.79938286370543
1120, 7.064404673976242
1121, -10.57774708756915
1122, -19.892032536211445
1123, -23.043648117212797
1124, -9.387665096066485
1125, 27.438679228243927
1126, 39.56821005218171
1127, 20.8067693034036
1128, 21.624705731862377
1129, 36.73500271202647
1130, 39.303356541674475
1131, 52.09189272311869
1132, 85.46346899769287
1133, 95.33734333920529
1134, 76.13920877998316
1135, 84.00953464428585
1136, 110.40620920513629
1137, 117.63748688193482
1138, 117.72972058804862
1139, 121.74298740478116
1140, 107.50009226305974
1141, 72.87999288098854
1142, 52.43397649713006
1143, 50.817908027403064
1144, 49.568572242622395
1145, 38.69100465952852
1146, 10.888917799842602
1147, -9.222554315793786
1148, -15.423155850918192
1149, -11.01311775981685
1150, -1.7871875860255386
1151, 0.6142178545114803
1152, -1.0742777383447901
1153, -4.236661305550115
1154, -4.0968387504190105
1155, 0.14938765621536731
1156, 4.370640016212747
1157, 5.551315568491191
1158, -0.9132152264237448
1159, -7.733216298620391
1160, -9.639562413761269
1161, -1.5220595885402872
1162, 13.169862914130135
1163, 10.993887950741737
1164, 0.16939348545838584
1165, -2.0294825197988757
1166, -6.385787740527121
1167, -18.49419177780419
1168, -26.43393416890558
1169, -26.012449694389034
1170, -11.364619378990938
1171, 9.845413264721174
1172, 27.549570959634366
1173, 45.91544570714541
1174, 61.16729782821949
1175, 58.794025389669514
1176, 51.03020590925826
1177, 79.81172156208049
1178, 116.54352000977724
1179, 138.4907398385658
1180, 155.98808537966943
1181, 168.21786758195503
1182, 154.4860930914747
1183, 125.6401188119944
1184, 105.36993363605234
1185, 77.2583268529279
1186, 33.87607985949853
1187, 9.905727866769666
1188, 6.499223761726171
1189, 10.43275110283139
1190, 15.179804516194963
1191, 13.949701033767269
1192, 0.42993624478276615
1193, -22.83188300126858
1194, -33.071593873894926
1195, -29.746038067029986
1196, -17.183320331219875
1197, 0.34559719123808463
1198, 18.35560825423181
1199, 11.826766561830482
1200, -13.00087104859358
1201, -14.556171560627263
1202, -6.762934247682097
1203, -8.481996382038233
1204, 12.952204418609654
1205, 64.59974110579424
1206, 95.64555753330751
1207, 106.87599984782264
1208, 114.01316443859287
1209, 96.8224597192384
1210, 46.394029819290154
1211, 6.676319400133252
1212, -10.135727515525105
1213, -3.0217760414443546
1214, 10.410880847757653
1215, 12.684299312670191
1216, 8.18308712891303
1217, 1.224702837181212
1218, -2.175878852997812
1219, 0.7082772127341741
1220, 13.460617543444641
1221, 26.502734923060416
1222, 33.67685014782819
1223, 26.986453099373648
1224, 11.313824604744696
1225, 1.4634384047803906
1226, -9.109809322748333
1227, -23.61867667732895
1228, -22.398898855059088
1229, -4.044946814939976
1230, 21.436213275224873
1231, 36.89829453011225
1232, 28.01305383857016
1233, 30.237365872142618
1234, 46.97684897627187
1235, 45.29117996166315
1236, 38.58980566419541
1237, 47.57344757447299
1238, 35.04836475355751
1239, -1.2283930204484932
1240, 7.774357828354368
1241, 43.262053266899784
1242, 55.41524189022948
1243, 52.60899662160409
1244, 40.78522289526154
1245, 26.587696720003805
1246, 22.145455636524275
1247, 43.71454274698135
1248, 61.15455020947866
1249, 58.55600334919018
1250, 54.774863568065484
1251, 56.30891815310406
1252, 69.02376989056665
1253, 74.63726127643804
1254, 59.78902068378011
1255, 30.526889137680882
1256, 4.05127598807303
1257, 12.36369438170368
1258, 42.81152860448674
1259, 76.93076746383576
1260, 70.98860608228097
1261, 30.48440336951353
1262, 11.727019162938632
1263, 9.812799185810945
1264, 19.332802119745793
1265, 54.73074600099608
1266, 98.94918004805459
1267, 90.24314294513897
1268, 69.37383279694495
1269, 79.24546812852168
1270, 81.97525071132259
1271, 73.70199430918728
1272, 80.99372879753355
1273, 71.92838054546337
1274, 16.408678553598293
1275, -16.09166220386578
1276, -16.21269032768396
1277, -13.238293685255485
1278, 1.0861091639490041
1279, 36.53237224881104
1280, 65.20638977971794
1281, 80.15638788782871
1282, 86.60075398429035
1283, 73.96454468702268
1284, 34.451499407340634
1285, 1.5178919163408864
1286, -13.669817949452408
1287, -8.888179165312067
1288, 0.3665249739324281
1289, 1.5342637553758323
1290, 3.869822480251969
1291, 7.352316385218728
1292, 4.306930807772915
1293, 5.86483130949091
1294, 18.12466525513537
1295, 15.945733391634349
1296, 2.4524092450628814
1297, -0.9458934776839669
1298, -4.609611797877733
1299, -13.893051121041935
1300, -12.356988360833384
1301, -0.7039268683647606
1302, 13.461980605893586
1303, 29.895097446050386
1304, 44.00527107550988
1305, 29.34030276454905
1306, 0.22179389217308199
1307, -12.503416208290218
1308, -14.465994990990112
1309, -8.950114794465662
1310, 0.6352576307144773
1311, 0.8802624122063207
1312, -23.032070762267722
1313, -15.149643979351822
1314, 27.505793428064862
1315, 40.04083244172216
1316, 32.65090952368064
1317, 20.680746116168848
1318, 0.9085089191767111
1319, -15.841220196888571
1320, -0.8540459444338921
1321, 10.822640977455194
1322, -1.7181172157334004
1323, -3.1565501855493494
1324, 13.688693919005345
1325, 49.8014288771883
1326, 73.7715998922231
1327, 73.54533976279708
1328, 65.01381880393365
1329, 56.58839026735859
1330, 56.32871658629119
1331, 57.07181373664298
1332, 51.41454482106201
1333, 23.335882322226098
1334, -4.189519607038164
1335, -14.25796083988189
1336, -5.173970643667417
1337, 12.410640885363136
1338, 11.92121821809451
1339, -2.7000314914976116
1340, -22.95737777505383
1341, -18.891421246231403
1342, -0.0020408691289048875
1343, 14.280908191293747
1344, 19.240070049479073
1345, 15.969398284929412
1346, 13.66688079895357
1347, 20.385523696631026
1348, 36.33701638773073
1349, 31.976173337207
1350, 14.728044422981839
1351, 14.786624372164624
1352, 29.786732635121552
1353, 52.19782057756129
1354, 61.745668152043436
1355, 46.36009626680425
1356, -0.3749379034143203
1357, -16.07014952539612
1358, 4.803350694231085
1359, 33.33544679473562
1360, 50.88501193259708
1361, 47.82579162891034
1362, 30.743237477982802
1363, 11.161899248590998
1364, 5.717262163616397
1365, 13.884829231633375
1366, 28.579618356010542
1367, 23.959063009118836
1368, 25.50115902802372
1369, 47.957878934801556
1370, 49.61569744559074
1371, 30.54972059851025
1372, 5.0504969543635525
1373, -8.781061287168995
1374, -2.702825226680943
1375, 32.875894032187716
1376, 54.26214402755613
1377, 31.27372525411465
1378, 9.855049955061077
1379, 0.29340600122759497
1380, 1.868472793536057
1381, 16.67524226654041
1382, 36.755520991106096
1383, 26.248962703079087
1384, 32.64032170807877
1385, 83.1709764411471
1386, 97.44976970389871
1387, 76.47898095048458
1388, 46.5446993630203
1389, 24.167828510994696
1390, 23.670174881210187
1391, 62.492929421234294
1392, 84.50555626794085
1393, 61.14446350340859
1394, 51.249303245409465
1395, 57.20371613529551
1396, 67.56000712182777
1397, 63.03601444868673
1398, 40.70634647440238
1399, 8.978806482470645
1400, -3.485359225341199
1401, 11.405704479177984
1402, 26.54493796413044
1403, 23.266003258945602
1404, -6.995140607049507
1405, -7.678698977062595
1406, 17.571600920718083
1407, 35.729975317037315
1408, 38.90158448525199
1409, 25.791952407766075
1410, 2.1608417493835077
1411, -14.076882713186933
1412, -13.797147023228717
1413, -8.471712333140204
1414, -7.9004889759089565
1415, -20.115805534011997
1416, -9.800392576657032
1417, 15.01820947025135
1418, 11.939895743108536
1419, 0.030240485353715485
1420, -12.491361944167693
1421, -33.224691502577116
1422, -30.925111581437704
1423, 12.918885834349567
1424, 46.910098315369396
1425, 62.25150876157841
1426, 62.53264075324114
1427, 53.744473468280376
1428, 41.90420246620306
1429, 35.964208787824646
1430, 23.946747665313524
1431, 3.4194299388018408
1432, -14.121757733945742
1433, -19.334527834627806
1434, -9.457003525503751
1435, -5.74975238434763
1436, -3.544953360533327
1437, 4.788453003332506
1438, 5.707476709806542
1439, 4.095538241110262
1440, 13.805235051297132
1441, 17.191986996420383
1442, 17.05325748633095
1443, 39.62983869112668
1444, 61.78854358990429
1445, 66.13548130355048
1446, 33.236475791952216
1447, -0.475917791509346
1448, -4.471903694773573
1449, 16.16272450269662
1450, 37.48684310867884
1451, 28.65082483920196
1452, 7.252732728177762
1453, -7.7612499435181235
1454, 5.615363257758872
1455, 30.801894094803174
1456, 45.03145387776567
1457, 10.927293312967777
1458, -9.9420586588285
1459, 2.0867317797701617
1460, 17.248833553523582
1461, 17.202646613008255
1462, -1.1759779445201275
1463, -2.4212035219925383
1464, 9.16454824372886
1465, 25.514287194233475
1466, 39.81619940085238
1467, 38.85915593157188
1468, 12.838486937529524
1469, 22.079756953499782
1470, 53.80445537246487
1471, 57.70398993625804
1472, 61.20845283319704
1473, 66.09789711770281
1474, 55.91051328294361
1475, 52.19037575479706
1476, 56.66044708483514
1477, 46.803773498038936
1478, 27.66239350477099
1479, 10.769068771666753
1480, 13.539332556106274
1481, 25.88922154201373
1482, 43.37142513305753
1483, 75.78367928219814
1484, 92.73232166377329
1485, 71.64523155137067
1486, 42.38566162381812
1487, 3.881391274469024
1488, -42.092941857617916
1489, -42.69645557421245
1490, -9.102008990328613
1491, 28.857809288942917
1492, 44.605893674228355
1493, 33.91185635481452
1494, 4.791140124355479
1495, 6.414454113715692
1496, 31.375538604785106
1497, 38.409051686974635
1498, 24.81160457403257
1499, 3.1715210033935364
1500, 2.3622129908362695
1501, 24.914030826736052
1502, 53.158224109391085
1503, 43.67954172554437
1504, 18.25732571230401
1505, -3.8144469507051326
1506, 0.803827973612897
1507, 6.596675147040514
1508, 2.2721921460797603
1509, -7.6910468445339575
1510, -0.2908435613981055
1511, 26.944035975694533
1512, 37.681852716424146
1513, 30.572180727947853
1514, 10.162444560430231
1515, -9.147839254147584
1516, -6.447207423168948
1517, 21.86356608110964
1518, 37.835386263252985
1519, 44.8515005695499
1520, 44.27998600366482
1521, 22.963110914092795
1522, 4.256512892660794
1523, 0.7639292048233983
1524, -7.37854345611413
1525, -9.980017528208919
1526, -3.384588015112058
1527, -9.294124606148216
1528, -14.493769837351465
1529, -10.645055768069142
1530, -8.831078833123684
1531, 14.391074303340247
1532, 61.97231693656886
1533, 62.01642040293518
1534, 45.813627241725044
1535, 37.990550040288326
1536, 27.634235737228664
1537, 26.372480309242746
1538, 30.85964909885297
1539, -5.790651516587786
1540, -30.84308104923639
1541, -16.096613782353415
1542, 13.681943392397443
1543, 26.898983531080376
1544, 11.708989742934136
1545, -7.294315305199234
1546, -5.507669619809349
1547, 18.64481522323058
1548, 27.283204774797923
1549, 9.077614230406652
1550, -24.952788701098143
1551, -31.833202221485408
1552, -12.631369922666636
1553, 14.228569836525821
1554, 1.6157421428833914
1555, -14.498099562391872
1556, -22.055798379970838
1557, -27.76300311345949
1558, -29.87253932031672
1559, -34.43542967210851
1560, -54.121607933589985
1561, -64.45239040621527
1562, -59.48595146769094
1563, -42.329058124040785
1564, -17.217565533688685
1565, 3.576335624316016
1566, 4.549329864528772
1567, 6.884044692790667
1568, 20.51605554998332
1569, 57.03886270545627
1570, 149.20127819083882
1571, 286.80384583709474
1572, 456.7134874916883
1573, 623.4984230105174
1574, 769.817332272316
1575, 893.371183182775
1576, 1041.316352331297
1577, 1127.2315968211697
1578, 1106.0555993676944
1579, 1029.469841407411
1580, 922.9130944370709
1581, 802.95963359289
1582, 682.9420198761654
1583, 515.0646706753532
1584, 315.07223395174606
1585, 189.2253360478453
1586, 116.12463586632657
1587, 62.939553199422335
1588, -6.3249148844925
1589, -52.010142542158064
1590, -68.1180022277722
1591, -60.398416705299496
1592, -49.47451909992651
1593, -49.14099553545748
1594, -61.410975435407636
1595, -52.89130257036231
1596, -36.658713950826495
1597, -28.729085080210098
1598, -46.47094569609271
1599, -44.32753353693079
1600, -15.419962838856918
1601, 6.218911439018484
1602, 24.974186715899123
1603, 24.836767324280117
1604, -14.271207661628068
1605, -27.02247343338513
1606, -13.311473611915062
1607, 8.904910174817815
1608, 25.262214018414852
1609, 29.174808323448815
1610, 20.79483576252187
1611, 9.716531921797468
1612, 2.0459763302797
1613, -3.3180224302550414
1614, -11.709584145312874
1615, 1.4091359637368441
1616, 32.5446891972133
1617, 56.09047719020873
1618, 54.57214876098351
1619, 42.89416917780727
1620, 41.2198009059548
1621, 46.74911686078485
1622, 45.329816885031505
1623, 25.82977076368843
1624, -15.479999491354647
1625, -32.59085525251703
1626, -16.503467427115538
1627, 10.762974471298548
1628, 29.058038414786097
1629, 29.37784829343491
1630, 15.229248358069526
1631, 22.992985489268904
1632, 39.465969623392084
1633, 45.78539552020993
1634, 24.141112421725666
1635, 14.782320018176506
1636, 23.779385861957053
1637, 18.103551184301068
1638, 9.570019192668042
1639, 2.043565288928221
1640, -2.612336613858133
1641, 15.749766795262985
1642, 15.806818944154656
1643, -16.646924934892922
1644, -23.30277481325811
1645, -16.57972628956668
1646, -6.017412403470189
1647, 1.2028450256302676
1648, -12.78104727628579
1649, -22.964064379651063
1650, -5.211930411030153