##NAMES=
##LOCALITY=
##RRUFFID=
##CHEMISTRY=
320, -3.244035705933129
321, -17.557732363566174
322, -26.615828764654907
323, -20.300128400699577
324, -4.0106604348520705
325, 13.293049110803622
326, 29.849100923159313
327, 38.07795471146801
328, 36.98846729308298
329, 24.256778507030504
330, -0.2877273114327181
331, -17.00292713566523
332, -16.770678044239503
333, -6.348853766160573
334, 6.725879332283512
335, 19.901057291765028
336, 21.944423746911525
337, 14.013977375210743
338, 7.0635859636950045
339, 3.761247202638515
340, 5.249811303714523
341, 12.22663683884548
342, 18.427736405491487
343, 19.131072461044823
344, 14.824229345314052
345, 6.410004644538276
346, -1.838079405632925
347, 3.3870217154808415
348, 21.837872499025252
349, 32.57049410986019
350, 30.647503187603434
351, 20.838370104572277
352, 5.600565311239734
353, -4.477622046935721
354, 0.9487052743388631
355, 14.760701266517572
356, 18.45819133209079
357, 13.021296195111063
358, 7.4609752791429855
359, 3.8442569314092907
360, 2.7040774216275167
361, 4.267695133215057
362, 13.88878376539833
363, 35.79484107195458
364, 54.291322699757075
365, 49.79457503238882
366, 30.371326403812418
367, 18.87805734671565
368, 18.447290807394893
369, 28.382008314845734
370, 49.00288459481908
371, 68.63208202336227
372, 84.19248780342423
373, 90.40147593919119
374, 83.61801516477863
375, 68.35088309974253
376, 51.23042759526197
377, 33.929851914061146
378, 21.173379618627223
379, 14.662482344610908
380, 9.385567455500677
381, 4.440762437611738
382, 4.971328733559858
383, 12.913292197244118
384, 21.157999541263962
385, 25.229071477758225
386, 20.74422177613269
387, 1.512527461546597
388, -22.89788016759576
389, -28.84215729178686
390, -19.277231587536335
391, -14.55521673243129
392, -17.009516515837277
393, -20.997507172690348
394, -25.193459366486422
395, -36.740985301559704
396, -60.81103169128528
397, -76.66840040755687
398, -57.89304475735935
399, -21.521092297489304
400, -8.341763322549014
401, -14.620027670150193
402, -21.948017073843403
403, -28.35392325702287
404, -30.50639307963138
405, -27.52508952518383
406, -16.043959600448943
407, 6.536036888109265
408, 28.114654675789097
409, 37.77488192281362
410, 48.314710488326455
411, 81.9013635945139
412, 138.6762653691867
413, 212.28144334416902
414, 286.87403189541146
415, 355.96415836827236
416, 418.1927738965378
417, 470.4856806961243
418, 511.88630004714287
419, 548.9292806281983
420, 585.6775741028405
421, 610.2685343122694
422, 608.4408973621812
423, 588.8678880680336
424, 570.8816265438654
425, 554.3559986290902
426, 535.9288738047344
427, 514.7973337802578
428, 487.4024303302849
429, 451.9188890010337
430, 387.0743974901043
431, 284.78302778359466
432, 177.9484868998161
433, 107.48802587020145
434, 59.828769440303404
435, 21.497103861734104
436, -5.707192566268532
437, -11.014453161465099
438, -1.436455433464289
439, -5.770504380867351
440, -24.020414865239218
441, -27.528441631590795
442, -10.928385421369057
443, 8.372150649521245
444, 24.939930232623738
445, 44.8958361073137
446, 73.26219591247718
447, 100.480631039115
448, 120.23446942443024
449, 137.4419536692185
450, 162.88777239368483
451, 192.32025818358397
452, 208.32035937801902
453, 210.319874506019
454, 205.8534186113211
455, 196.39540896197195
456, 182.67686289758421
457, 164.94050112386503
458, 143.2183008625434
459, 117.52820933979729
460, 88.11959594619111
461, 55.23784454620727
462, 28.408245134780373
463, 11.853042668823946
464, 2.1706054532014605
465, -6.996764424628054
466, -16.68293952789645
467, -26.756470789634477
468, -36.91589182196276
469, -37.55160498190253
470, -26.85074748187617
471, -18.182066351599133
472, -16.47612969567672
473, -21.830467154799408
474, -34.960944523715625
475, -47.504205158031255
476, -49.613204427493656
477, -41.13620849345989
478, -20.542728127861665
479, 5.517128588865489
480, 12.420305176823604
481, 1.647918770443539
482, -5.975866417301404
483, -6.62813018887573
484, 14.935030737756279
485, 62.994136142494426
486, 102.34260237146736
487, 119.65954783952839
488, 119.1543925327951
489, 103.50337950004905
490, 79.7417389396569
491, 55.3249421596156
492, 36.576792371278316
493, 38.12746213725222
494, 46.28502599378862
495, 33.03011598021294
496, 2.7513870554639652
497, -18.16589967850814
498, -29.202690781376987
499, -34.57637086779687
500, -35.91549149020102
501, -39.78486832055023
502, -48.33035398850552
503, -51.90843553126069
504, -45.66735480511852
505, -28.013902611163758
506, 3.5806669472740396
507, 39.254984141607565
508, 62.18063130409337
509, 70.67472368534436
510, 61.53393889708332
511, 42.08537826207521
512, 38.79525073091918
513, 54.93950590394252
514, 101.88480257994706
515, 179.51682845559208
516, 232.20338402690595
517, 252.65388055373478
518, 269.13064103436864
519, 290.31931233848263
520, 307.6384393096241
521, 317.0251355977989
522, 321.63689040330155
523, 323.7411391704527
524, 315.40561711699957
525, 287.7311611850955
526, 253.1330991054947
527, 232.81533017085985
528, 218.0280442507119
529, 185.79202310108394
530, 139.1293250220151
531, 93.46621719935683
532, 61.33743256898197
533, 49.23057129449626
534, 57.01869893988987
535, 81.56560520674702
536, 122.89658103710372
537, 148.71529226234088
538, 151.11358971521804
539, 150.9663217710522
540, 158.82168531170464
541, 167.82384736690892
542, 172.90924026902576
543, 172.37968893153538
544, 164.35290497697133
545, 147.71660623655953
546, 120.66493980496762
547, 90.88692685291062
548, 85.36427368286786
549, 101.08971992645365
550, 119.06207859687038
551, 136.3791702091312
552, 143.20733835947976
553, 138.80969579218254
554, 126.8749084826868
555, 109.06393337869031
556, 95.87334489969817
557, 89.9938895277337
558, 87.18701279631023
559, 85.63327063526503
560, 77.4346649346162
561, 58.37482043975797
562, 34.552347450344314
563, 14.009574082399922
564, -4.686406246519255
565, -22.73923847059814
566, -34.44630590199449
567, -29.56750350208131
568, -14.355632630875334
569, -1.5973742385012883
570, 8.50685167235406
571, 13.190683388170328
572, 10.803140487292694
573, -4.344758416946206
574, -28.774129982379236
575, -41.003397682076866
576, -39.31748974990478
577, -28.032902852521147
578, -8.61874757701753
579, 1.7652002658278434
580, -0.9907730938366512
581, -8.858455853884152
582, -19.225747396891165
583, -21.3157987538998
584, -9.539715242251077
585, 4.333910172146716
586, 13.061592818857207
587, 15.74063553257838
588, 11.949862243095595
589, 5.322451015146726
590, 0.8299110821062641
591, 0.7594981777856447
592, 9.521963448134557
593, 18.25355282061264
594, 8.249885785636252
595, -9.789986504420995
596, -9.009530286964036
597, 6.55384348561347
598, 18.11537595621121
599, 24.775096643179495
600, 33.62761872818555
601, 44.02965638598289
602, 46.68071345578119
603, 41.47426444588018
604, 40.46692370197525
605, 44.75559478012474
606, 36.148426954460774
607, 10.700457986359652
608, -9.331705650489312
609, -18.444646706638196
610, -21.41365030910947
611, -20.30220433695922
612, -15.68046574490927
613, -7.532088700198983
614, -3.929962055643955
615, -10.879681327051912
616, -14.910391783108025
617, -3.5331187493347898
618, 9.357681459097876
619, 6.630922305250351
620, -1.0470360479685041
621, 1.8106291233516458
622, 9.35422689040388
623, 10.105035732395663
624, 8.523938994097989
625, 15.812584595396402
626, 25.491145892987333
627, 21.442047377881863
628, 9.050327921327153
629, 9.694194758838421
630, 22.35086153438442
631, 35.443811850373095
632, 46.53358674753872
633, 49.10522430508536
634, 42.909074704451086
635, 31.585493047808086
636, 17.291511537471706
637, 13.230647674611646
638, 19.590517716294926
639, 19.035041509203438
640, 8.571516625498589
641, -0.1108543490709053
642, -4.857081025019397
643, -8.09571768369915
644, -10.398058330083586
645, -2.928491663595196
646, 17.89872165392444
647, 27.12406825834023
648, 13.377427038787573
649, 2.845889945431736
650, 10.053490434920604
651, 21.12123827213327
652, 25.71676539701366
653, 29.66204443024526
654, 37.28953638283565
655, 37.27915225698416
656, 19.773618092701327
657, 0.3656754971216287
658, -5.020420129828381
659, -4.813667187457213
660, -8.341128823501094
661, -11.215349567409248
662, -7.241971918395393
663, -0.5897091205897596
664, 2.2547822404721956
665, 6.226135503782643
666, 20.042605612217812
667, 35.51100225506616
668, 37.349377151202134
669, 28.792719647242848
670, 17.916651109457234
671, 8.603721700917959
672, 10.56995796699448
673, 20.376774944611498
674, 25.889168048747706
675, 26.402176994064575
676, 21.69689703586846
677, 11.91592001711706
678, -2.4143529433449658
679, -16.372576847087657
680, -12.546625526664684
681, 3.6266074203267635
682, 3.2929750074854383
683, -10.792865580884609
684, -13.611343763534933
685, -5.029284060286045
686, 2.7874154820856347
687, 8.821202348631232
688, 12.324764571229025
689, 13.233392165877376
690, 11.564209342308459
691, 9.793482414337632
692, 15.860495165884458
693, 31.276469484674635
694, 51.23042087568774
695, 71.75590259244836
696, 68.66281924177929
697, 41.08094951255407
698, 19.076848636355862
699, 9.203127215809218
700, -3.290921937766143
701, -20.230541085288678
702, -21.438350299591548
703, -4.743115634868445
704, 5.043978806847917
705, 4.688217779259503
706, 16.81258370204705
707, 45.73875017008686
708, 61.64254106370754
709, 58.50155544960671
710, 52.36007846411849
711, 47.48068922814309
712, 42.13335280837964
713, 35.96611619737632
714, 30.620407763468393
715, 26.522208988649254
716, 23.048084357090374
717, 19.784696709163654
718, 13.854845384722466
719, 6.672960981352844
720, 9.04422927710857
721, 22.85839992174897
722, 22.881851084513073
723, 3.791369563182343
724, -5.513075456350634
725, 1.536054930175851
726, 8.186755198493302
727, 9.450883650589276
728, 12.798991224672136
729, 19.31069436685266
730, 13.169494640383164
731, -8.024075098788671
732, -14.107520988831311
733, 1.3085592041179552
734, 10.419629325699134
735, 5.445889522180551
736, -0.46435821001705335
737, -3.6427758442086997
738, -5.868421468063389
739, -6.8906612868968296
740, 3.0601323892688015
741, 24.81667039412696
742, 27.371849127395762
743, 5.444519980876976
744, -10.656605603016942
745, -15.076723530557501
746, -10.498034167717378
747, 1.3658991346665061
748, 7.227583106588099
749, 4.207605595431232
750, -1.4686014988683382
751, -7.547732509556226
752, -2.764523343872497
753, 14.099587318719387
754, 30.190849308592078
755, 40.97294362663797
756, 33.52816742787854
757, 9.060355504357176
758, -8.642588383710063
759, -16.96112613110745
760, -14.458304370868973
761, -3.7745673942463327
762, -1.3280760248799197
763, -5.8813516875598
764, -0.1832475152268671
765, 16.97018742124601
766, 39.3229857369779
767, 62.104866594333544
768, 76.62417700418064
769, 81.60777139615493
770, 75.82992500339424
771, 63.92835191788072
772, 62.28008805560785
773, 68.40674910098642
774, 70.24746283021705
775, 66.65987354344725
776, 56.876423139960934
777, 41.8177696939274
778, 23.95572850132703
779, 10.18103358576991
780, 9.161264338623369
781, 14.291376748253242
782, 11.88322149108626
783, 8.48739310208839
784, 17.005016798589168
785, 31.938931823870007
786, 40.80373583477558
787, 47.95745833993533
788, 59.85315359395827
789, 67.8503958243773
790, 61.08620541509936
791, 51.98037091919832
792, 53.98981246004041
793, 53.73196490947612
794, 38.84572110944282
795, 18.371630957279194
796, 1.344260491498062
797, -11.346616123921194
798, -19.08285881824122
799, -15.369314727539859
800, 3.8619748631044786
801, 19.670302582346267
802, 21.45439396405618
803, 16.667288496252695
804, 9.069287473022996
805, 9.218246841674045
806, 19.483732401988163
807, 22.729532714306515
808, 14.391522803504813
809, -0.09569463119896682
810, -16.90765337572975
811, -18.082095557246248
812, -1.1530318301511215
813, 23.967568308908994
814, 55.87650967706577
815, 82.55252295688115
816, 98.92131671351672
817, 88.98148350480642
818, 60.06002555062423
819, 45.37502308662806
820, 41.51050100570137
821, 29.373820925588916
822, 12.881388067541593
823, 6.045581631509776
824, 5.024841680985446
825, 2.1755758833387517
826, -1.4642664168022748
827, -3.7294179547543536
828, -4.894377119660021
829, -5.1883129607222145
830, -5.964564881708611
831, -8.681140649423469
832, -7.932196022853532
833, 0.8904621829278767
834, 4.030419906265706
835, -7.747964232468803
836, -16.9740753679298
837, -15.265903513210105
838, -7.938362866763782
839, 3.0968522834546093
840, 13.719879619809944
841, 23.416825133997918
842, 32.47896467806186
843, 41.494115796797814
844, 51.58879692025039
845, 60.83749955783696
846, 57.2235276177862
847, 40.86212899841394
848, 20.1595171610943
849, 2.8363012719109975
850, 2.8105263274837853
851, 15.52225383818677
852, 27.446634497728155
853, 35.25044716966113
854, 36.8693434867846
855, 30.784490521222324
856, 14.771334393014513
857, -1.3847766155586214
858, -6.602086067576238
859, -9.029283782392667
860, -15.271189465213865
861, -19.1307666423545
862, -16.623644796675762
863, -5.594114322795576
864, 14.990048226906765
865, 28.727411768260026
866, 30.135269355342643
867, 26.3079636946386
868, 19.698150444934072
869, 14.13010912752361
870, 13.122910044961827
871, 23.50273620990447
872, 38.36312238629853
873, 32.94755735805484
874, 12.512401793444951
875, -0.4992391630230486
876, -4.715047738670364
877, 2.381451727588683
878, 14.350126679360983
879, 21.496751580172713
880, 26.827538325791465
881, 35.203293673132066
882, 41.49119810244156
883, 41.801971797402985
884, 35.28759024022929
885, 21.76455505535796
886, 6.823768036471847
887, -5.5583358360408965
888, -4.097506183241421
889, 12.63469312505822
890, 29.887957753656337
891, 41.87733377891436
892, 42.48198669546946
893, 35.422615743241295
894, 36.30546817145205
895, 39.983345809599086
896, 30.718877339240862
897, 13.82613571850652
898, 1.0799176354594238
899, -10.04325161225097
900, -22.32577183124613
901, -24.04705874530191
902, -5.490417222362339
903, 12.085639915507272
904, 16.945849997946425
905, 18.04180585776612
906, 18.54713934078336
907, 15.661111647688813
908, 9.70888586878209
909, 8.532648361323481
910, 14.033405026491891
911, 30.119076807651254
912, 48.18953368986331
913, 46.49189065469727
914, 33.52693034665026
915, 28.677833034650575
916, 22.871097415901204
917, 3.445565618910223
918, -10.394912773464966
919, -4.246766259474498
920, 2.052151878288896
921, -1.5772223059238968
922, 0.9037127202518604
923, 14.364621530255135
924, 24.203416732666483
925, 27.47170553572414
926, 39.027741219524614
927, 56.60380426006668
928, 62.622912788437134
929, 57.198376366688535
930, 44.770866243845376
931, 28.18085053912273
932, 11.730287908464561
933, 1.345595684359978
934, 0.8213670088252911
935, 6.153193378670949
936, 15.141656760099977
937, 25.047093979653255
938, 32.527963586108854
939, 34.482300014366956
940, 30.19590300093114
941, 20.535900718245102
942, 9.40456845408562
943, 12.075122036760149
944, 24.85607978732287
945, 33.43979742220381
946, 35.70432103051189
947, 29.267414354311768
948, 15.819018354404307
949, -2.7330888455794593
950, -10.554921886663124
951, -0.05120440245173086
952, 10.947888484825398
953, 15.078364887614043
954, 9.108773780562387
955, -4.4365825006143496
956, -9.864305881900236
957, -5.508622551108147
958, 9.15172949485941
959, 28.176337997113478
960, 36.671429578816515
961, 31.140665795411678
962, 8.183906284969453
963, -8.143672098301977
964, -4.37246816223842
965, 9.061106729724088
966, 27.38474088286557
967, 33.61649898139967
968, 25.3410505144725
969, 11.029620682188579
970, -4.80557517927673
971, -12.447508206544626
972, -12.978649390331157
973, -8.414647893075198
974, -3.8450209904053736
975, -4.7832804851709625
976, -1.706423404760244
977, 11.099990877406526
978, 21.9524008733556
979, 25.689693264785546
980, 29.516269509927042
981, 33.77787532708817
982, 32.77238709259109
983, 28.209456353712994
984, 26.417845182558267
985, 23.17812571543118
986, 13.762890106082523
987, 19.15509531816906
988, 57.849474090463445
989, 90.20915394532767
990, 98.08677491892377
991, 87.93036849588134
992, 62.50822211137529
993, 27.03340182800048
994, -6.339837108696429
995, -13.207668568977624
996, -5.603519756135029
997, -7.784561859500172
998, -9.014188943428508
999, 2.3538237582251895
1000, 21.129559133467865
1001, 45.12404274785149
1002, 65.38946061856404
1003, 76.73708201967293
1004, 60.122968217913694
1005, 20.88653008315987
1006, -8.95512598284995
1007, -26.322242089320298
1008, -26.065873070084308
1009, -11.292488975107517
1010, 15.711988274922533
1011, 42.83582849341292
1012, 60.318663122771795
1013, 70.18831118760954
1014, 74.03460544831887
1015, 77.5906408434862
1016, 79.83667738891745
1017, 74.4704025533706
1018, 70.09686294538596
1019, 82.66018693736896
1020, 90.14580902265607
1021, 72.60513672707702
1022, 47.85517129486652
1023, 24.396515758675378
1024, 2.661393317827333
1025, -15.625706718188212
1026, -10.738163630832787
1027, 9.384438575449622
1028, 17.585272893705678
1029, 17.87531241241095
1030, 19.151355428250554
1031, 21.984920645511465
1032, 26.37654385103997
1033, 25.90757992936051
1034, 18.44568988788251
1035, 5.677304257559626
1036, -6.611369002916035
1037, -2.7336469464230504
1038, 11.328173660750963
1039, 21.582446200662616
1040, 20.419893323599354
1041, 1.7422348451204925
1042, -16.86648315515049
1043, -28.303173323351075
1044, -25.94365287907476
1045, -11.49042835233513
1046, 0.3027396425850384
1047, 6.938524604198847
1048, 4.336719782368618
1049, -0.6049927285553167
1050, -0.36157112306591443
1051, -0.9251173652987745
1052, -5.219469359543837
1053, -9.718975958669944
1054, -12.489915801792904
1055, -7.6797693188705125
1056, -0.8132452483523593
1057, -7.29485583729047
1058, -17.458802887292222
1059, -19.52725501792338
1060, -21.824499265614122
1061, -27.501355227862405
1062, -18.377267580010994
1063, 5.188946818339446
1064, 14.268372861078205
1065, 12.81297068854201
1066, 17.31252261923464
1067, 29.475705700460367
1068, 51.30327061494836
1069, 90.76300105121072
1070, 152.52982488768157
1071, 203.27219999084946
1072, 240.57472940773414
1073, 281.6427156507839
1074, 322.3225653055729
1075, 349.65690356505365
1076, 358.1717885430744
1077, 343.7312184500033
1078, 331.5395542364122
1079, 331.5211476804907
1080, 329.3338241283641
1081, 322.46701157067264
1082, 313.33113077140706
1083, 291.666453986782
1084, 239.49343907537605
1085, 180.92299454488602
1086, 133.98426170883613
1087, 83.2003181183045
1088, 35.95617348182668
1089, 15.819280997759051
1090, 16.753736086412573
1091, 15.085009610974794
1092, 6.059936144877611
1093, -14.965746013511307
1094, -30.950676567511437
1095, -33.40224035627489
1096, -28.983750365692686
1097, -20.28264263487472
1098, -11.944803926810891
1099, -8.535245153836968
1100, -18.7475407984939
1101, -24.53574686304637
1102, -11.635314535113594
1103, 2.9006165080681967
1104, 14.976734545136878
1105, 33.516307731873894
1106, 51.86872129483663
1107, 53.336196330914845
1108, 47.200972465564064
1109, 44.979232578550636
1110, 36.06352217952053
1111, 16.442281869027283
1112, -1.4306893753928307
1113, -14.944336267873041
1114, -18.76530006438452
1115, -13.2737177275676
1116, 1.1253669180555335
1117, 15.495497281546704
1118, 22.630347646703285
1119, 16.446255564682815
1120, 0.43016769728774307
1121, -3.6644747590780753
1122, -1.4196420470766498
1123, -6.474482592131153
1124, -9.390145471803862
1125, -3.431796610524543
1126, 1.1678521727026236
1127, 1.9831153945838196
1128, 2.4684787789760776
1129, 1.8601514654169478
1130, -2.515201723512746
1131, 6.080490621136505
1132, 41.36659902478277
1133, 68.76040933723925
1134, 75.61380980954755
1135, 60.53791442501506
1136, 33.14490703018191
1137, 15.413636797136405
1138, 16.58232005540367
1139, 41.33849357278723
1140, 56.12034201434699
1141, 49.85133215388669
1142, 28.126411551476394
1143, 3.4242902705937013
1144, 2.3508016946311727
1145, 14.74884013959263
1146, 31.425497014450684
1147, 43.207911299291936
1148, 45.83081556109255
1149, 31.87098562703568
1150, 9.254803058031484
1151, -1.7193753865640247
1152, -0.5721611467961338
1153, 12.474223416445057
1154, 20.04591888986033
1155, 16.643243862547934
1156, 4.562788976759293
1157, -11.09749189977947
1158, -23.478592702971582
1159, -24.39140431274018
1160, -8.34849806861439
1161, 11.215011411582054
1162, 29.679234402353813
1163, 37.49128900799997
1164, 37.21919011566433
1165, 34.4129016043662
1166, 24.15285601859796
1167, 5.166772734986807
1168, -5.654560665359895
1169, -7.8898779708652
1170, -9.799813705011275
1171, -7.333173034522133
1172, 5.610601352787398
1173, 18.665316779230125
1174, 25.406210578214996
1175, 23.91076226695077
1176, 16.617902725361546
1177, 10.43260944916483
1178, 12.679185744714687
1179, 28.040849198908745
1180, 37.68895416852865
1181, 36.673989455652645
1182, 30.823958139197657
1183, 20.937000479018934
1184, 7.244009486021696
1185, -0.19250324597669533
1186, 2.1385785011357257
1187, -1.4684839537353582
1188, -11.001109866408115
1189, -14.01519023563651
1190, -11.993508437682067
1191, -7.482985492533771
1192, -5.061210130643303
1193, -6.057350688446604
1194, -7.441784820667181
1195, -6.337017275773178
1196, 2.533086172973981
1197, 20.961777286534016
1198, 49.014995128756254
1199, 60.26724558649494
1200, 56.42577210799982
1201, 64.72934269443067
1202, 74.80773363120579
1203, 71.94499530461007
1204, 70.84940283610831
1205, 72.76124805118388
1206, 50.27568912010565
1207, 18.245051615153443
1208, 15.078876842178943
1209, 15.710532459918795
1210, 6.432870453329542
1211, 16.49466077335319
1212, 41.99227943105234
1213, 45.490968933089334
1214, 41.180056012510704
1215, 44.9734337599798
1216, 36.9148980196519
1217, 14.847775913875921
1218, 2.0999164746749557
1219, -4.658391963994291
1220, -13.023055275875777
1221, -16.922431370702725
1222, -13.683394219900038
1223, -6.40806940299035
1224, 4.676474869426784
1225, 19.840922294171378
1226, 25.222588653282855
1227, 13.16986460154476
1228, 2.623400644247795
1229, -2.915140957046333
1230, -8.479943809247288
1231, -13.21455087406639
1232, -16.023538210396964
1233, -19.084690173647232
1234, -21.809409268174022
1235, -18.5273587815509
1236, -10.86916133841487
1237, -2.1129110525594115
1238, -7.333448337733898
1239, -24.468226742485058
1240, -7.940134383948589
1241, 30.297398903396697
1242, 60.21560035132188
1243, 81.25915332723025
1244, 95.44232551866526
1245, 105.30548583675636
1246, 113.08946279259226
1247, 122.39961321170267
1248, 126.8975613729499
1249, 122.47981132630912
1250, 109.52708847805889
1251, 99.56083950706216
1252, 129.95714526314805
1253, 157.79655495737416
1254, 159.91748645900088
1255, 161.30976414819042
1256, 163.7580105006091
1257, 155.17513419159013
1258, 148.96406411734688
1259, 154.61731551495768
1260, 143.11837940586793
1261, 116.72871197748827
1262, 106.59231724000983
1263, 91.77141138722254
1264, 53.23591636209176
1265, 31.09369873228161
1266, 30.17073453940884
1267, 39.476284238191056
1268, 57.56582258419121
1269, 77.5268987373729
1270, 80.57368925939863
1271, 65.93964766395175
1272, 50.61923310830343
1273, 33.91736277065729
1274, 14.53098765614186
1275, 4.928500380569403
1276, 4.5191912882219185
1277, 2.9307175345275027
1278, 4.383222577419474
1279, 12.642983673966683
1280, 5.461380942359028
1281, -13.947235233275023
1282, -17.333277445913154
1283, -10.171822112323298
1284, 0.45056720079310253
1285, 7.8737144016381535
1286, 10.293148290106728
1287, 9.195388053066381
1288, 5.125804404101018
1289, -0.4647553354411684
1290, 3.4595998724294077
1291, 12.222377033823705
1292, 3.691165430715955
1293, -6.047676307040547
1294, -5.301642001058553
1295, -5.390212123616038
1296, -6.107762006830853
1297, -0.6979047886325134
1298, 2.2821164283263897
1299, -2.063752107390428
1300, -5.850757749819422
1301, -3.9422726615985084
1302, 11.336508331979985
1303, 22.15887573126929
1304, 19.870124646940894
1305, 14.65906979114061
1306, 4.671917543012114
1307, -14.577027473423186
1308, -19.981754506288326
1309, -7.107984267863685
1310, -4.491603599746668
1311, -6.970086876761343
1312, -3.7265390313496027
1313, 2.246166690384598
1314, 7.345599174371273
1315, 0.8969114045262359
1316, -7.338047741067385
1317, -7.9475681086846635
1318, -2.543229820727902
1319, 7.757340622783886
1320, 19.862346730554236
1321, 20.20210963198997
1322, 4.0423527891925914
1323, 6.435869289936363
1324, 21.09410641823979
1325, 21.702390286826358
1326, 16.329990719575108
1327, 8.923076734155075
1328, -2.9434851533019355
1329, -10.518810831259998
1330, -3.139525128678997
1331, -0.7432936863178838
1332, -4.814780653739945
1333, 3.090444017389018
1334, 12.159277073006706
1335, 11.106272203969638
1336, 5.36729702762932
1337, -0.6208371844977592
1338, 0.011631540600774315
1339, 5.111113874059356
1340, 11.303674422987115
1341, 8.04209792683514
1342, 0.09219451778699295
1343, -3.432629902950339
1344, -2.6946099369147305
1345, 2.582008900687015
1346, 13.436181462735476
1347, 20.098597741161484
1348, 14.494588566675247
1349, -2.5350659038781487
1350, -18.097291397980825
1351, -7.782067793920305
1352, 10.486309157815413
1353, 27.34805643766549
1354, 36.57713673878152
1355, 30.731396139492517
1356, 5.08966273850956
1357, 2.703857793525003
1358, 22.052922030100945
1359, 25.766360915805308
1360, 18.990181955493426
1361, 7.307967694251147
1362, -2.95830152482813
1363, -6.383838222089707
1364, 4.157210659319389
1365, 16.683132060445132
1366, 25.043102902240662
1367, 26.177193403023466
1368, 21.4024530178267
1369, 12.496688973003074
1370, 3.6420586878102768
1371, -1.165849285589502
1372, 1.800222356841914
1373, 1.7303621469759491
1374, -2.8438111631130596
1375, -2.1899725337721065
1376, 2.424272497894435
1377, 10.65705891616426
1378, 30.405249591810843
1379, 47.120603718547045
1380, 36.23192004845305
1381, 19.942490385503334
1382, 5.678567193699564
1383, -11.657128481527252
1384, -16.985314552334785
1385, -0.8932685242280058
1386, 12.333139326256514
1387, 26.051054889824172
1388, 48.56757872124808
1389, 48.63664475959149
1390, 25.146073849126424
1391, 10.277744956340484
1392, 1.9792872874913883
1393, -2.2286496676301795
1394, 9.446247509666136
1395, 23.418976438398204
1396, 17.66297194426579
1397, 19.54147836347329
1398, 31.62058492876031
1399, 38.318557228427835
1400, 29.082674646156875
1401, 3.6804620159277874
1402, -12.955283083668974
1403, -13.721184525902117
1404, 4.951661237809731
1405, 22.841170614163275
1406, 32.78111986118415
1407, 32.31655586699526
1408, 24.166492219256497
1409, 13.93886698650249
1410, 17.699828222017004
1411, 21.502346587214106
1412, 17.24885966240754
1413, 16.83995120506006
1414, 13.763088585737705
1415, -1.7029809326074883
1416, -11.995553015568476
1417, -13.109434621214632
1418, -5.501176123831101
1419, 8.937448133329553
1420, 28.44187610660515
1421, 44.94738109627292
1422, 56.58340312576411
1423, 62.08788056281992
1424, 59.554159955252544
1425, 48.108021195825586
1426, 27.54041410926402
1427, 4.136705682365118
1428, -13.08360266550153
1429, -11.271547157633904
1430, 2.3710282608888065
1431, 17.68141890054426
1432, 7.427578381808871
1433, -4.956829424671469
1434, -2.6375048428292303
1435, 14.875406637271226
1436, 42.568224170324584
1437, 67.94022600468406
1438, 62.43682036251221
1439, 37.30581009655589
1440, 24.79513083782126
1441, 14.161191846640804
1442, 4.520224353045478
1443, 0.00806005717458902
1444, -3.356960968628755
1445, -5.101327824016835
1446, 6.164536883858773
1447, 22.291344294054397
1448, 33.19430851214656
1449, 33.31110303544756
1450, 21.121439113569295
1451, -1.2140795199006789
1452, -6.307377368407515
1453, 6.849953180162402
1454, 29.001977773543786
1455, 41.37564000322118
1456, 35.242392613222364
1457, 5.64074080848377
1458, -12.189239666026879
1459, -5.040936733647641
1460, 19.892230233022246
1461, 30.611229660824165
1462, 11.454201764837308
1463, -7.74683403104018
1464, -18.737497959594293
1465, -14.775787075059498
1466, 16.48749628603582
1467, 51.008535551790146
1468, 51.180508876819886
1469, 41.6475951562345
1470, 30.25140514613463
1471, 19.493679814447887
1472, 6.300868876043296
1473, -1.212270268622433
1474, 14.179911009970738
1475, 21.99772672685026
1476, 18.101029523384796
1477, 34.51986477010496
1478, 33.02444184716114
1479, 6.2738846881093195
1480, 8.507047020084656
1481, 8.945624077839739
1482, -7.032642663489014
1483, 5.885195541044368
1484, 25.291815152502977
1485, 28.65105694126669
1486, 37.55120890539456
1487, 37.69588066415872
1488, 13.432329473982463
1489, -6.636809926465503
1490, -18.2374738189651
1491, -20.50523476304693
1492, -4.5403515176653855
1493, 22.775136861402416
1494, 43.73772613753454
1495, 45.4567744040703
1496, 30.411867853015337
1497, 10.669205454299345
1498, -3.900776680066656
1499, -9.609006446216654
1500, -2.656210272004955
1501, 7.490947853603984
1502, 16.377267795817033
1503, 19.73341472835955
1504, 20.457752847020856
1505, 20.471348290381684
1506, 21.402437399074415
1507, 23.923323609123372
1508, 24.762437130942317
1509, 13.38732171467177
1510, 2.11072776266883
1511, -2.5158431225422646
1512, -3.047500660979267
1513, 1.4435195410651431
1514, 8.000194557753503
1515, 2.067054438039122
1516, -0.9784310041000026
1517, 5.197588251919342
1518, 7.594445303866905
1519, 14.156878198913091
1520, 25.57611880382933
1521, 23.972047679189473
1522, 18.317148836089927
1523, 12.440159401140136
1524, -8.30501600739376
1525, -16.510167246652145
1526, 0.9432249665164818
1527, 16.08971518049816
1528, 18.03215867941981
1529, 5.492478329543928
1530, -3.8310468004412996
1531, -7.062880700630103
1532, -2.108761502088555
1533, 15.901226814127995
1534, 17.943781896642577
1535, -4.529411387705522
1536, -2.100541519861963
1537, 4.013709528332811
1538, 1.7816403286776676
1539, 12.589812458483038
1540, 17.92459728029803
1541, 9.004538151030147
1542, 2.7891715274695343
1543, 2.644530638591732
1544, 3.5273590902222622
1545, -14.924410328406339
1546, -17.254070895556197
1547, 2.714829539439279
1548, -2.62809715514868
1549, -1.499033584052313
1550, 14.210720594406439
1551, 13.181908197980874
1552, 12.433005376150959
1553, 14.306980981222068
1554, 1.8512446734403056
1555, -5.710392717865716
1556, -4.336559647300874
1557, -2.81992801252386
1558, -7.110894681655282
1559, -12.479644324131868
1560, -5.484704366721871
1561, -1.4049492023298171
1562, -4.896525941114305
1563, -14.762125984875865
1564, -19.92790376290577
1565, -18.11290765863305
1566, -10.978512793040863
1567, -6.783953354383584
1568, -5.548056656951758
1569, -4.482296249414503
1570, 0.561159588085502
1571, 13.050920912443871
1572, 33.52223903447407
1573, 47.782255046803584
1574, 74.88823812765577
1575, 125.23162509068038
1576, 153.44762128140064
1577, 180.42500915793926
1578, 214.24025040539868
1579, 226.6770112165682
1580, 249.1760469062458
1581, 284.3834975019545
1582, 292.3116649038345
1583, 281.67968954352204
1584, 259.9428714751325
1585, 234.41035462632817
1586, 217.6381798728844
1587, 202.8294588103206
1588, 172.51545094806215
1589, 126.33230700681065
1590, 73.4206111676242
1591, 32.82096600424484
1592, 3.5343851141890354
1593, -19.33657805385019
1594, -35.531437621555824
1595, -25.68190489481185
1596, -5.406743701529649
1597, 13.248901677131926
1598, 25.652458858130103
1599, 20.152938594272655
1600, 1.731434825534052
1601, -7.224992001340752
1602, -8.22907744558188
1603, 3.2332562212318408
1604, 32.42307339574586
1605, 40.33713632990998
1606, 24.54660284836723
1607, -4.054208822077271
1608, -27.250596836520117
1609, -26.626029025035905
1610, 3.5258565432802698
1611, 35.82522318172232
1612, 46.772920703938325
1613, 33.498535405339
1614, 16.193935061322236
1615, 10.058124647925524
1616, 11.598156634723182
1617, 4.263982850909088
1618, -6.603060182670788
1619, -11.248441443073261
1620, -1.9882215218988222
1621, 9.398519795159245
1622, 15.555293076788303
1623, 14.295881976885312
1624, 18.15748752524155
1625, 33.589766140610664
1626, 50.34860524276701
1627, 48.26321188240877
1628, 52.0533222573888
1629, 57.34553573343146
1630, 50.9820883721884
1631, 43.725691131412304
1632, 23.51130198180499
1633, -6.068777146992261
1634, 3.7720927592333737
1635, 9.301053453208624
1636, -0.5929577671124662
1637, -2.493935137742028
1638, 0.8459277378294701
1639, 7.006230783144247
1640, 12.874190012350027
1641, 14.254118791451901
1642, 4.14534885818307
1643, -11.348121316717652
1644, -1.3252503186076865
1645, 3.6660475644875987
1646, -1.090976451771894
1647, 0.9537311883882467
1648, -5.552466730940978
1649, -11.094101232585672
1650, -3.5221267447032005
##END=



