##NAMES=
##LOCALITY=
##RRUFFID=
##CHEMISTRY=
320, 8.493747268054904
321, 10.092890152946893
322, 8.327283432216973
323, 4.7705781263157405
324, 0.9403549286107591
325, -0.4052574201259631
326, 0.8421723746741918
327, 5.553312166081014
328, 12.720935319826822
329, 12.687139539516465
330, 3.2626295421614486
331, -3.6965542455609466
332, -2.5603308193112753
333, 4.1178719286963315
334, 13.631028365462953
335, 23.516980546694867
336, 28.15775586099153
337, 26.997955052836915
338, 18.60856486780449
339, 3.3348412958339395
340, -7.233499814387869
341, -9.863710487777098
342, -5.51633405926259
343, 5.671530960719792
344, 18.73290538445417
345, 21.829522345820806
346, 17.21155700216059
347, 14.660156462764462
348, 14.859082572133957
349, 14.944683513887867
350, 15.78990940588028
351, 20.669595738303542
352, 29.64819168773647
353, 38.80950871778623
354, 43.719626932602296
355, 43.9630052102566
356, 38.55297523313402
357, 29.264550615488588
358, 25.284984331127816
359, 27.0467134666751
360, 23.61584635422514
361, 11.74628522810417
362, 1.305679430618511
363, -3.288285540601464
364, -4.700706110031206
365, -6.091765865781781
366, -6.8856005506777365
367, -5.113959223426718
368, -0.8611661019203893
369, 4.049531688227944
370, 9.605292765744707
371, 13.252570206335804
372, 14.262430420335477
373, 13.65018586766837
374, 12.115637066895033
375, 9.796021628158087
376, 6.893153251376134
377, 5.673346911704357
378, 10.624449548052326
379, 19.400690865035358
380, 19.454561069034753
381, 9.184370299114562
382, -3.454419171700465
383, -15.968023914892001
384, -18.843564127279933
385, -5.078848235336409
386, 14.041758071002732
387, 21.132758805566482
388, 18.538776875340773
389, 13.079723882269718
390, 5.347637962921908
391, -3.0362776827896596
392, -12.102872067409407
393, -14.265253481786203
394, -7.269328927344759
395, -1.3181910771154435
396, -2.319722700519378
397, -5.887207563469929
398, -6.949251995346458
399, -6.769676033536598
400, -8.06652607777687
401, -10.886464310501651
402, -14.632311821404983
403, -18.489109097630717
404, -12.359190037445842
405, 6.619093655827783
406, 28.25288354762506
407, 48.97573195150744
408, 71.14241995919019
409, 90.11359837465261
410, 107.47579569260233
411, 126.05993377383038
412, 146.5958745293301
413, 171.3119443533442
414, 198.61730090895162
415, 217.13776768141452
416, 225.19691719115963
417, 228.2273313924852
418, 228.1486845228701
419, 230.5446584854826
420, 238.88693642550425
421, 250.16025498864656
422, 260.7396669387981
423, 267.05073026769423
424, 261.16998530229466
425, 244.88352469672827
426, 226.56839573763773
427, 207.65204223595993
428, 192.45186430023296
429, 181.43158894616317
430, 165.23271483902954
431, 140.23275025762905
432, 112.18466093191
433, 85.13089140540887
434, 56.596841947566645
435, 28.956354581978303
436, 6.125765334177231
437, 1.713319766407949
438, 10.799139351322083
439, 12.545983072413037
440, 6.257567492488306
441, 3.970494178746776
442, 7.77223845701883
443, 8.945772244288491
444, 3.2604377917841703
445, -0.10297141876890237
446, 4.524988850307636
447, 11.984453834164015
448, 14.80956372505807
449, 15.485522990863501
450, 21.035460013768898
451, 28.511800545084952
452, 31.929305238798406
453, 31.648444762649888
454, 34.06174895043205
455, 40.29174335447988
456, 49.07324585750666
457, 59.861210960529206
458, 66.21866974013483
459, 64.53364350550692
460, 52.302363668274666
461, 27.061077918659976
462, -0.17520828138003708
463, -10.416498475961816
464, -8.515500702573263
465, -6.28994680598953
466, -4.389650051980425
467, -3.198446345410048
468, -3.149793347832201
469, -8.57874057664867
470, -20.203479718940798
471, -20.78884746300355
472, -3.229787435920116
473, 12.018281228477463
474, 10.538385811280932
475, 1.5171302738654049
476, -4.352570510724945
477, -7.592720676219869
478, -8.425967901228432
479, -6.206830079029714
480, 1.5512310181984503
481, 13.106958301732448
482, 14.423681398321605
483, 4.822153029282163
484, -3.039496517914813
485, -6.840182470655236
486, -4.44540137759941
487, 5.305716116357871
488, 17.077169446081825
489, 26.325257202449393
490, 26.387772261286955
491, 10.204548478525794
492, -9.20776182525151
493, -10.182995951658086
494, 1.2465774755928578
495, 8.864187991516701
496, 13.911141633619081
497, 21.91718953083182
498, 31.578454103373588
499, 27.91018528958557
500, 9.241155263699511
501, -5.076374841095458
502, -10.751678221683505
503, -14.188231364271815
504, -18.605704762588175
505, -19.49296782919646
506, -13.0860600412434
507, -0.6375595117187913
508, 16.706063788953543
509, 37.347813887347
510, 56.805217705927134
511, 73.17296254771645
512, 92.4698431155557
513, 113.32619034882464
514, 127.50261654078986
515, 134.8949498697266
516, 142.53411792127736
517, 151.57004103388135
518, 157.92623570208252
519, 160.3506148495544
520, 160.10318517225642
521, 157.7521362652642
522, 148.5341698679522
523, 129.02869746111628
524, 99.2572749172823
525, 59.244085648083455
526, 24.200458622089172
527, 6.476606661830374
528, 5.008420878948527
529, 20.775112306375377
530, 50.08393300527132
531, 70.99754403891802
532, 80.7047537022936
533, 73.9377110699752
534, 51.87027190650406
535, 32.58104341219405
536, 20.115508479624623
537, 11.976845840767965
538, 5.80288148112686
539, 2.218953034101105
540, 1.502485980140591
541, 4.633351668014257
542, 12.70156815034079
543, 22.717547810416363
544, 29.203591089906695
545, 29.98402961895681
546, 21.527101739733553
547, 8.689669378150938
548, 3.718017269153279
549, 7.179892382489015
550, 21.411810347856772
551, 44.904392181568255
552, 60.932277957032056
553, 67.64928606673857
554, 65.24707788510659
555, 54.716265702177225
556, 46.60978312222505
557, 43.354256168124266
558, 35.21708213062357
559, 18.574144985387647
560, 1.7654764815379167
561, -13.37826640649655
562, -23.057113508273687
563, -24.243987110637136
564, -17.315378883817175
565, -1.8510813245848112
566, 15.04967731207671
567, 20.42774005350566
568, 14.99648084205819
569, 0.5296810683876174
570, -15.458063524845784
571, -13.575773380885039
572, 1.6440106917343655
573, 8.54836302752301
574, 6.297318165640718
575, 3.593550521209181
576, 1.799139304851451
577, -1.4198004801473871
578, -5.991480798108569
579, -2.759424182051589
580, 10.713487340163738
581, 24.40891211015969
582, 32.97265896078079
583, 36.96704634452635
584, 36.71543692753676
585, 36.42906767994009
586, 38.90901059522912
587, 35.9827972597177
588, 20.316089230484977
589, 0.4077384770889694
590, -13.316998443861849
591, -20.162226603037197
592, -17.49764335853797
593, -7.799369112258319
594, 4.008694233851202
595, 16.185719288249857
596, 20.855170451457525
597, 18.179708727739126
598, 10.242591191236897
599, -0.5723254195454501
600, -4.180287235125434
601, -0.4450862828980462
602, 6.335838552289715
603, 15.435402004834032
604, 21.152783036680376
605, 22.592176555175683
606, 22.382209183436316
607, 21.050475764785915
608, 14.80887822058412
609, 2.6976125153596513
610, -3.637903715821267
611, 0.1181025109381153
612, 2.798190757754128
613, -1.8577086072373277
614, -6.999705068293224
615, -7.899123630415488
616, -7.50697205749475
617, -8.387577879027958
618, -4.342392238163484
619, 12.345768712340941
620, 34.151394691227324
621, 46.41384806140013
622, 48.550937815600264
623, 39.719641075752406
624, 22.774097669975163
625, 4.049420358513089
626, -11.158271363482527
627, -11.848750637486773
628, -0.5031176683460217
629, 13.894686729182467
630, 30.624762650705634
631, 42.83379481299744
632, 49.20319926292723
633, 46.07666124784555
634, 35.23443288550061
635, 30.138673005750206
636, 31.31596277132212
637, 26.250279721027255
638, 13.46768500465987
639, 4.114826936589452
640, -0.2909859235323893
641, 0.5662516097536354
642, 6.8916082175146585
643, 17.739514379987668
644, 31.374351066873714
645, 37.036326273114355
646, 30.649721839119593
647, 20.40165039759904
648, 10.273373209966849
649, 6.928193061195998
650, 13.06712146850623
651, 23.730060675836285
652, 34.022265183073614
653, 41.0040179747366
654, 42.47939414520533
655, 37.099221001825754
656, 23.688669896746433
657, 7.361622805266961
658, -5.934605096111227
659, -14.739786653821284
660, -16.63030918160439
661, -12.958702731028097
662, -4.948279745747641
663, 3.751654206744206
664, 7.1086099676658705
665, 5.396205054023994
666, -0.1047279943149988
667, -6.060559198666851
668, -6.500553580808628
669, -1.615212427316692
670, 8.368426354088115
671, 22.972569365862
672, 37.78097176067877
673, 47.90861164603575
674, 40.43324774685152
675, 21.348552093355465
676, 11.045583237258143
677, 8.236477889356138
678, -0.01655114945515379
679, -10.151417280951136
680, -3.3308130689947575
681, 15.324161791771985
682, 15.348100369012172
683, 1.0085975038473407
684, 5.509269283410504
685, 25.41940102017088
686, 22.696798749825575
687, 0.5104687111625026
688, 1.2920060786655085
689, 24.7692930085459
690, 33.97248950406447
691, 25.768674119705793
692, 16.687801098312775
693, 9.079149827623041
694, 0.6584614732646514
695, -7.98956120695766
696, -3.275325030228487
697, 15.525416665215744
698, 28.703044278935522
699, 31.775038183651304
700, 22.469433586022205
701, 2.8984510865348057
702, -3.603631077281534
703, 5.060519165578626
704, 4.979385049263328
705, -7.841757586459607
706, -13.923191002792919
707, -9.238453275705979
708, -0.42545141226764827
709, 11.110455421412553
710, 22.161867318903205
711, 30.207954795771002
712, 32.84578705043805
713, 29.550057960010236
714, 22.16734558122789
715, 12.468155076338917
716, 16.84433920815536
717, 38.29223209946758
718, 50.77820197595793
719, 48.27037204543467
720, 47.63021286059575
721, 52.43291615321505
722, 42.149660339489856
723, 12.785303557452607
724, -3.7969171283739342
725, -1.0068152397479935
726, 5.467454408801132
727, 11.629864717499913
728, 22.024911988399253
729, 35.64032592570311
730, 38.78440361190769
731, 28.306698972125105
732, 17.41680572903715
733, 9.527772734680639
734, -1.6464244590024464
735, -17.73493891856515
736, -20.624482707676634
737, -6.94569530165154
738, 0.3564225125446683
739, -3.3193512964217007
740, -0.5548968875159517
741, 11.68061294987183
742, 10.391427414225745
743, -7.7658123007117865
744, -14.969212796592728
745, -6.675664384072206
746, -2.346189060539473
747, -4.898531169482794
748, 0.5236770232695562
749, 16.22984372096107
750, 26.892032453152297
751, 29.226786609162446
752, 24.503754642398235
753, 14.026081213236012
754, 5.348742294658678
755, 0.5791799156168054
756, -0.3850055841194262
757, 2.96774583085471
758, 14.360506124864514
759, 30.578375944477557
760, 31.184396475634458
761, 16.34919518575407
762, 4.720463334550914
763, -1.284233165169553
764, -6.3254838203697545
765, -9.519676511092257
766, -2.4158533250229084
767, 13.160353890716578
768, 22.500505842996063
769, 25.56613401696768
770, 28.38485047603126
771, 29.37216876339062
772, 21.06868686580856
773, 8.451572494599986
774, 9.893862868247652
775, 20.871211702417895
776, 23.59087571494092
777, 19.877818387911248
778, 17.004987947215795
779, 13.200242827641432
780, 3.5579154372026096
781, -4.2983540699215155
782, 4.200466074514225
783, 17.884294497976953
784, 13.436637761963539
785, 1.859417030636905
786, 2.0243857629589
787, 6.413565912583181
788, 4.308457109032133
789, 4.797948250377431
790, 19.662939948124404
791, 33.652709673885965
792, 30.76462694224074
793, 20.242803488128175
794, 10.650380088199654
795, 3.6570135374026904
796, -0.9332789694585699
797, -0.9224580913592035
798, 5.492653814889309
799, 18.35830138334586
800, 36.339827844246884
801, 43.46643078849593
802, 32.339099811905726
803, 19.05880260654203
804, 10.40728467814506
805, 4.290320333860109
806, -0.7299767717904615
807, -0.7139079295138799
808, 4.785443639462301
809, 6.474016054026379
810, 2.040211606734829
811, -1.968953040744509
812, -3.498038128927419
813, 4.240331339152817
814, 19.79954690644763
815, 24.08514729574017
816, 17.16242442722205
817, 11.434509888353205
818, 8.41512230720673
819, 9.154144469794119
820, 11.430347254533899
821, 11.080920895295094
822, 7.1887145083023825
823, -1.8181940592498904
824, -11.11083766738011
825, -11.373465663423303
826, -5.185617423348958
827, 3.393583904064144
828, 10.705125994877108
829, 10.505171659575808
830, 9.04923741088578
831, 12.93732902751799
832, 15.621452136630523
833, 11.74274586968886
834, 5.937482779812399
835, 1.7329648087466012
836, -5.5625910056674
837, -18.015355367753273
838, -16.152065953380315
839, 6.75460905548789
840, 21.579859647493322
841, 19.120790973031944
842, 19.126409282650457
843, 24.65335948447546
844, 19.880072403905615
845, 5.364122631421651
846, 2.7302001995121827
847, 10.162858409595628
848, 6.886449939708655
849, -3.2362667636912192
850, -3.121776863046307
851, 5.014608633588068
852, 12.65923862395448
853, 19.819569984307236
854, 28.42732604666071
855, 34.39700074970233
856, 31.43590162868668
857, 21.381442642231832
858, 6.424906526503946
859, -6.316089811703023
860, -12.639377636468907
861, -11.908238977485325
862, -3.413451539241578
863, 8.359042121021503
864, 21.83872033676198
865, 32.811308879556236
866, 39.772809596930074
867, 39.69772048622144
868, 32.3716820650784
869, 22.22253451038023
870, 10.229751119852153
871, -2.0980500185355595
872, -12.279867374521928
873, -7.620541330483775
874, 9.21658139651663
875, 27.568396670212223
876, 41.3307715871324
877, 41.34576374755261
878, 34.219948906466016
879, 30.306187872106875
880, 24.86723018203702
881, 12.746168667575603
882, 3.6669383149064743
883, 2.9153303913089985
884, 2.3136127971843052
885, -2.0083697616014433
886, 1.3170662395464205
887, 16.052983149756983
888, 28.25339710929802
889, 33.96404009452408
890, 32.86530562083908
891, 25.395630543864627
892, 14.01999886687554
893, 0.536694196613098
894, -9.961612393737141
895, -15.237134225389582
896, -8.829614390673669
897, 1.9876478946412135
898, 4.098748429302304
899, 1.7514585029930458
900, -0.1660047382565608
901, 1.1799531978108462
902, 8.354639573278291
903, 22.89789730147868
904, 43.50112986355498
905, 52.24674053658191
906, 43.176005519384034
907, 26.00361807094714
908, 5.458828841601644
909, -4.122428198017133
910, -3.076105701734832
911, 0.9538444241652542
912, 5.339211824758877
913, 4.3047252607839255
914, 0.5234328840242597
915, -0.1613463308417522
916, 4.05738864288287
917, 15.849472479274027
918, 24.309749571526936
919, 20.626903668242903
920, 14.08303914224507
921, 10.157733551953697
922, 14.197207586240893
923, 25.087360918883405
924, 25.703893199864524
925, 14.130653889557834
926, 4.606118416242225
927, -0.08091334592154453
928, -0.34980704744430113
929, 3.1063301675317234
930, 8.970550033749078
931, 12.864127431535962
932, 8.266791499109331
933, 1.6813162422140522
934, 0.09566139879279945
935, -0.04781667830229708
936, -0.9789048775746778
937, -2.6884994838596867
938, -4.9947088532089765
939, -4.7294485920429
940, -1.4027674391013534
941, 2.392962412921406
942, 7.004060965002282
943, 13.983185469638556
944, 20.058012211969526
945, 16.803735726107334
946, 9.139117487851308
947, 5.33549855215324
948, 2.723977116901551
949, -1.9847814725080752
950, -2.5395177449900075
951, 4.659932428754928
952, 15.309803683145674
953, 26.20475880341428
954, 29.749050125000394
955, 25.054171973782104
956, 16.393535885322308
957, 6.753196651251528
958, 4.08714481836796
959, 9.82884721422397
960, 26.822608587733157
961, 42.15336660170624
962, 42.179441473325824
963, 32.866120819423486
964, 18.44466164249934
965, 3.80976727244024
966, -7.960561589381086
967, -11.46190940645647
968, -7.628673067634736
969, -7.764638928691966
970, -11.008916531730847
971, -9.75111450449549
972, -5.6200412075122586
973, -2.568661636700199
974, 3.233807424947827
975, 16.24987863143906
976, 25.35601268271239
977, 24.144816832435936
978, 20.8246737498157
979, 18.255722888386117
980, 14.33197126054074
981, 8.343282288434693
982, 0.04745948861409488
983, -6.237409455561192
984, 2.7679015067233195
985, 17.72638926454829
986, 21.324310006584255
987, 21.370814317343502
988, 24.521644013202604
989, 21.37842808806863
990, 8.676509726077256
991, 3.7401250974789946
992, 8.945271542018418
993, 13.887434798398772
994, 16.976429876818656
995, 21.614402009616242
996, 26.323614642772554
997, 27.874739810980373
998, 25.02547840202533
999, 16.656143094387062
1000, 7.36723483454125
1001, 0.6017157328046778
1002, -2.860203777600418
1003, -3.584561839417802
1004, -6.0537060559991005
1005, -9.038584975854974
1006, -5.08427695973387
1007, 1.8402232581456701
1008, 2.7105557104391664
1009, 1.5950409983020108
1010, 3.296732431907003
1011, 3.035606302335509
1012, -1.1840472787566796
1013, 1.1840759130718652
1014, 12.030534235521827
1015, 20.460882709550788
1016, 24.73203118449419
1017, 25.027779171227394
1018, 22.26662092568813
1019, 18.03982956135542
1020, 13.547322562573754
1021, 9.941926812850397
1022, 10.86320868130042
1023, 15.686219139642617
1024, 14.817423585304823
1025, 7.489812942760636
1026, 2.3574674024280284
1027, 0.447303552035919
1028, 0.6386077960487455
1029, 1.6723156660391396
1030, 1.9570435102245938
1031, 2.2701074275137216
1032, 2.8531766768483067
1033, 2.0836523925690926
1034, 0.021209783808444627
1035, 1.2633404268458435
1036, 4.292047941626606
1037, 0.25396587584373265
1038, -4.424519482821779
1039, 2.8319680071135735
1040, 10.997009962864013
1041, 8.994087225389649
1042, 3.0392900412798554
1043, -3.5936198551507914
1044, -10.929925876785546
1045, -17.30398371902129
1046, -13.838351365682684
1047, -2.042298324341573
1048, 12.880869649678516
1049, 23.970546904286948
1050, 23.68451790836707
1051, 15.216611386068053
1052, 1.0430163741511933
1053, -10.399579143554092
1054, -17.14201874514174
1055, -15.959734159061554
1056, -9.747983239092719
1057, -6.209397204757352
1058, -6.6221426622969375
1059, -12.440286447381368
1060, -19.39160613854665
1061, -24.925496316239787
1062, -23.643284430162566
1063, -15.063342781654683
1064, -4.649655229736709
1065, 6.316085507186926
1066, 15.406702973848041
1067, 28.106789239509
1068, 51.17040828001882
1069, 91.48822636209525
1070, 153.46608741953423
1071, 206.72293266145653
1072, 246.1817998758529
1073, 274.0529302414743
1074, 293.5503794742499
1075, 310.91010136844034
1076, 327.2829019790147
1077, 343.16467997245127
1078, 345.5780091894312
1079, 329.38232542331207
1080, 301.7100797923654
1081, 265.4848699069912
1082, 225.5230829094412
1083, 181.1009404717779
1084, 130.25999286710385
1085, 81.84446913285092
1086, 50.77155613097557
1087, 31.25420788336487
1088, 18.856037908464714
1089, 3.332681385723845
1090, -14.26611486631009
1091, -24.53149239338336
1092, -29.389378901057626
1093, -31.089556060519044
1094, -20.917879028891093
1095, 4.4935619632051385
1096, 20.78556526399052
1097, 21.999533890260864
1098, 14.382793519304869
1099, 0.04863552079541478
1100, -18.23749174339082
1101, -28.05241247648155
1102, -19.45469389143682
1103, -5.039094906731407
1104, 9.978018183667245
1105, 16.43974176958227
1106, 13.969084866237154
1107, 5.712847038299969
1108, 1.1365408405463313
1109, 9.518539381769642
1110, 15.32959993415443
1111, 11.493826101030663
1112, 3.2943206590307454
1113, -6.837645533142677
1114, -16.810849671607684
1115, -16.8811126694236
1116, 8.518464140263404
1117, 34.30255263856179
1118, 42.45843051643487
1119, 37.69226271573871
1120, 24.093423169916605
1121, 13.205597810022482
1122, 6.539962933357856
1123, 5.155051889325932
1124, 1.8866435704244395
1125, -8.017366471712194
1126, -12.271440543107474
1127, -8.083135978137761
1128, -0.7212304859267533
1129, 8.540084536410632
1130, 18.001724363623453
1131, 23.731765892782732
1132, 23.76223335155146
1133, 28.591837220827983
1134, 39.2758073093396
1135, 40.98663686464852
1136, 33.70438911324209
1137, 22.29363054745545
1138, 11.289337476279798
1139, 6.167192225366762
1140, 13.529253492759835
1141, 32.90654564882652
1142, 41.496443694307345
1143, 39.59710017787211
1144, 35.263274012832426
1145, 32.99451534542277
1146, 36.18513207207434
1147, 37.54141766837438
1148, 32.91939740643238
1149, 14.74458278476095
1150, -8.260457847824
1151, -20.429995709171635
1152, -16.502442228437303
1153, 7.432455793330519
1154, 31.293304411045938
1155, 44.5300395201416
1156, 37.19726858581316
1157, 17.64306915468478
1158, 4.451914825297536
1159, -0.9573214064034801
1160, 0.9125479435101624
1161, 6.100664008478816
1162, 12.427691662528105
1163, 13.386986931942374
1164, 10.097359911518197
1165, 5.378469556444998
1166, -0.9890275897478205
1167, -9.20357100436513
1168, -11.546798531532204
1169, -4.597085102165238
1170, 17.466877804203705
1171, 38.3530926905305
1172, 36.48624388457665
1173, 23.90407672027868
1174, 7.727551803468032
1175, -2.376039303757807
1176, -5.642992240952481
1177, -2.055138494461062
1178, 4.415870322119645
1179, 10.457133743208487
1180, 17.81001452587816
1181, 25.751640427884013
1182, 33.91717519029544
1183, 40.9341158053644
1184, 44.42272724396844
1185, 42.51653744249552
1186, 34.085778943152036
1187, 19.44114276629216
1188, 1.9763823973939907
1189, -7.713907445151563
1190, -6.010498734844077
1191, 10.684291113917425
1192, 16.558783827117168
1193, 4.405531541550317
1194, -3.0422941344841092
1195, -5.406313185380441
1196, -7.532342925384455
1197, -1.8822034130016618
1198, 15.584998575826376
1199, 22.274275471299916
1200, 19.528615478298434
1201, 33.96058579822056
1202, 49.310788639566
1203, 46.342641432322125
1204, 40.68844447394895
1205, 38.36423169138061
1206, 35.61885098047924
1207, 34.57044361553153
1208, 40.34988469115888
1209, 45.35614882591017
1210, 44.33262390687241
1211, 36.18701852137792
1212, 22.54191350537303
1213, 8.933591965362666
1214, 0.1645648666494708
1215, -1.2463356392113383
1216, -0.15558608936862584
1217, 1.64583922848351
1218, 3.4587043210935917
1219, 6.497844840564085
1220, 12.742202736335457
1221, 18.39347499060659
1222, 20.9568384475715
1223, 14.87757538037522
1224, 4.647171033627728
1225, 2.6020845758976066
1226, 2.0599248960884324
1227, -2.1421612884482784
1228, -11.915107938862548
1229, -23.168307574172104
1230, -21.011567644753086
1231, -13.36656828242576
1232, -8.263795883235161
1233, -0.1800424455054781
1234, 10.80382069986399
1235, 14.727355442010776
1236, 12.07981209114405
1237, 5.00152384460489
1238, -2.016238201919805
1239, -7.3972617653316775
1240, -8.845792672942025
1241, -3.6121081848082213
1242, 12.6547689993331
1243, 24.350692481016722
1244, 23.588810506751997
1245, 26.96196789641772
1246, 33.67320340504648
1247, 36.15866770808498
1248, 39.823282991827455
1249, 47.33470126336397
1250, 51.1498302154605
1251, 46.546481032269185
1252, 26.15300416955779
1253, 18.890062322861013
1254, 40.199001983560265
1255, 50.793188938649564
1256, 45.62649508027971
1257, 36.300483684726714
1258, 21.43067355111134
1259, 4.361889054029689
1260, 16.256379897549778
1261, 49.89026505929269
1262, 50.682462342055715
1263, 33.21676189763548
1264, 15.1316280580686
1265, 3.2266569282583077
1266, 0.4308395014904818
1267, 14.635083482226037
1268, 33.15735359233986
1269, 39.89598691903393
1270, 37.277560207601255
1271, 29.69878856013065
1272, 29.261368849597147
1273, 27.86620347246844
1274, 17.27454993818992
1275, 12.506066648692467
1276, 14.446776029392822
1277, 4.868210531132263
1278, -4.280130511911011
1279, -1.4653056405127245
1280, 5.980531686231188
1281, 15.372954996663339
1282, 22.64747968477468
1283, 22.379214896289795
1284, 10.652034167912007
1285, 0.2676238939425275
1286, -3.489755723298458
1287, 3.569185162308713
1288, 14.901562384146928
1289, 22.876027477998832
1290, 21.335979743599182
1291, 11.53308399314892
1292, 1.3604435422289498
1293, -4.437088282130389
1294, -3.517666634212219
1295, 1.1733599461790618
1296, 7.704614771275374
1297, 11.920472703997348
1298, 13.000078138420577
1299, 10.81377511851315
1300, 7.584080289237136
1301, 3.1376834496782067
1302, -3.3092598233442914
1303, -4.426472573528372
1304, 1.4122116775834002
1305, -1.364075507905909
1306, -8.853956763310634
1307, -10.44806632324753
1308, -4.771230891487903
1309, 6.930331235672384
1310, 14.022652840234514
1311, 14.69926661592308
1312, 8.938665355795365
1313, 6.292180288429336
1314, 7.740503406967036
1315, 4.608208902816386
1316, -3.4827645152822697
1317, -15.842718852107282
1318, -16.337885156865923
1319, -5.106104641778529
1320, 6.1224764660119035
1321, 14.814328588598073
1322, 18.502886155987653
1323, 19.065085228552107
1324, 18.64663620743977
1325, 20.558174088168016
1326, 20.752416691401322
1327, 17.102364308949745
1328, 9.501854610195096
1329, 2.383000112802165
1330, 1.406547448310448
1331, -3.299432281071404
1332, -9.545099166777163
1333, 2.484325751488541
1334, 12.874842600325337
1335, 4.587862455128743
1336, 8.035652948747156
1337, 17.3395754421972
1338, 4.943038288351545
1339, -2.9921616548213024
1340, 3.3984768410441575
1341, -0.04301033677302257
1342, -3.401996944592156
1343, 11.709869548915322
1344, 22.669345161165893
1345, 21.890310068683903
1346, 12.392710374162561
1347, -0.03015256730600413
1348, -9.337919401424188
1349, -5.617429495057877
1350, 7.474744897805749
1351, 18.063701000870424
1352, 27.096843638741348
1353, 34.013042627719415
1354, 31.3388125222923
1355, 27.99661394772943
1356, 33.81747465921467
1357, 24.55969623690612
1358, 1.7290960344332689
1359, -11.179162384668416
1360, -7.135861836418144
1361, 15.258420947564673
1362, 36.92053809363301
1363, 49.80550357913967
1364, 49.386453280814976
1365, 35.074943346910686
1366, 15.525123772276856
1367, 19.851578001073676
1368, 19.492903229695912
1369, -2.5478352771820028
1370, -11.083864669145896
1371, -7.884147527801815
1372, -4.927225550741468
1373, 9.53941268814583
1374, 34.731986441683375
1375, 46.34050727514068
1376, 48.74575454388355
1377, 46.116664244589174
1378, 31.34758109374161
1379, 11.819370810564351
1380, 4.014855244785167
1381, 10.639599992538024
1382, 26.807672226114164
1383, 28.45902356232955
1384, 20.72310595510521
1385, 9.48694693280595
1386, -1.9238498679601435
1387, -6.840294354035223
1388, 5.370765471963523
1389, 22.42706599103417
1390, 35.5490252580596
1391, 35.14527664455795
1392, 22.228491839104663
1393, 0.8279630704946612
1394, -12.126093826875376
1395, -11.557357711313216
1396, 5.829202074111436
1397, 18.23647006294118
1398, 17.676015010029687
1399, 4.460488243921191
1400, -5.5209313629229655
1401, -7.3036465554239385
1402, -13.993129177946685
1403, -15.60389142812528
1404, -0.8010887211710269
1405, 17.94618887943784
1406, 34.67129842086979
1407, 43.77548784156306
1408, 34.52175832368471
1409, 11.024981257662603
1410, 3.0363809882455826
1411, 3.0231129582480207
1412, 3.4119647922220793
1413, -1.2564875497541834
1414, -3.5144180149634394
1415, 7.324499388595768
1416, 22.94525580245977
1417, 34.812300974247364
1418, 31.78746799974465
1419, 19.729421623582766
1420, 6.508160784165511
1421, 10.66102237760083
1422, 19.970902156302827
1423, 22.263390015075856
1424, 19.631320857049786
1425, 12.24182475269231
1426, 0.8257808306971128
1427, -2.601588470136221
1428, 0.3772172254743964
1429, -0.12239534032505617
1430, -0.5692264679496475
1431, 1.1020698191814517
1432, 6.071538409187269
1433, 13.764393963734392
1434, 21.33318329214717
1435, 21.07017309320304
1436, 13.723728368408047
1437, 2.5027493343454807
1438, -3.3390424980871103
1439, -0.8581141920576556
1440, 11.403060954157127
1441, 12.12629227678076
1442, 0.36032728677810155
1443, -5.103179097611928
1444, -6.703597010187423
1445, -6.038916853580076
1446, -2.3717882690209535
1447, 0.6953645455503192
1448, 1.2836232527299671
1449, 6.129778919853607
1450, 17.260340931367637
1451, 31.591031335196476
1452, 20.592905086155042
1453, -3.5602881769730175
1454, -7.381761325448224
1455, 1.3121172178027791
1456, 19.389415571933796
1457, 43.05826222746168
1458, 43.91862498872911
1459, 19.245243243372443
1460, 7.618181711346779
1461, 4.1734098129122685
1462, 2.189746885650038
1463, -0.10980371201480921
1464, -2.7160523133070456
1465, -5.1444078371889645
1466, -5.452784022347714
1467, -0.23780347003435054
1468, 13.476452708811848
1469, 20.99341096440571
1470, 18.447687739859475
1471, 6.424284467683265
1472, -2.344062920829856
1473, -4.604117963617682
1474, -0.3989477117718252
1475, 9.688388980589707
1476, 21.401404408673216
1477, 20.16963703542615
1478, 23.747579847341058
1479, 35.30785258979381
1480, 29.218966731355295
1481, 16.586150064347294
1482, 6.798556080457956
1483, 0.9778796026139389
1484, 1.4741148548212095
1485, 9.707422138124912
1486, 19.95021374510293
1487, 28.0280760758194
1488, 31.45358617503598
1489, 29.07688936267664
1490, 22.88559433990963
1491, 15.24070620901216
1492, 0.5926540013356316
1493, -11.170242135303852
1494, -4.622347459486036
1495, 6.461513600163244
1496, 16.610407542341136
1497, 20.078811229092025
1498, 5.761850300583319
1499, -13.126281494758814
1500, -4.342651223399571
1501, 11.639695795276111
1502, 25.972942566395886
1503, 33.144218964896254
1504, 30.986030197439277
1505, 22.731699455811622
1506, 19.463890876221058
1507, 15.567532150602574
1508, 7.248009777434845
1509, -6.707124313125178
1510, -12.419750596736549
1511, -5.056186857500961
1512, 6.74524049542174
1513, 26.959419295504176
1514, 46.52680963054195
1515, 28.393271429401466
1516, 3.2329500303630994
1517, -8.909064314551642
1518, -14.475934057464201
1519, -4.429216089338752
1520, 18.902181595062757
1521, 16.134727142438123
1522, 3.2176312521776254
1523, -4.828356052904837
1524, -4.864058260667434
1525, 3.425579254677359
1526, 17.06392051366379
1527, 19.97851679308883
1528, 17.87745169984828
1529, 14.180467702834903
1530, 0.926225234683443
1531, -10.038249682312198
1532, -9.95912733949558
1533, 4.787987515090208
1534, 23.6761617192858
1535, 36.69482438904629
1536, 40.167707030673
1537, 27.114063085793077
1538, 2.02667296660411
1539, 0.2861566561116433
1540, 4.059572532537004
1541, 4.7156446841290744
1542, 19.697001123361588
1543, 19.14902199350263
1544, -3.819805946841825
1545, -7.557054783708963
1546, -4.584427923878138
1547, 0.4192126733130408
1548, 20.202692159054095
1549, 27.236838662926857
1550, 16.522495765996837
1551, 16.942259014590945
1552, 24.43264271264411
1553, 30.343759772962812
1554, 19.84122214811191
1555, 9.041614057974812
1556, 4.769755887517476
1557, 4.339978772735776
1558, 19.451753697290542
1559, 30.03609552374928
1560, -9.200567475009848
1561, -35.15503873750845
1562, -33.26785671059861
1563, -12.180835419849018
1564, 12.331077008151851
1565, 20.66223322528458
1566, -5.092876691395077
1567, -10.649762722082869
1568, -2.7392021954647134
1569, -2.3029813362652476
1570, 6.279007698871737
1571, 16.422926229596897
1572, 24.852522344848694
1573, 67.51502751710245
1574, 118.27423460648379
1575, 149.45894351737707
1576, 196.9290206871026
1577, 233.53344273682637
1578, 244.7063049104852
1579, 250.95261434936242
1580, 266.2540505928612
1581, 292.53640728724076
1582, 317.0766275780254
1583, 323.71791847904205
1584, 307.20924875468927
1585, 270.88176933544423
1586, 230.5291382254852
1587, 192.13369256321153
1588, 158.06477665492503
1589, 134.07758934957337
1590, 110.38870731615248
1591, 72.84594869828561
1592, 25.419536547101643
1593, -11.25652872298565
1594, -20.95876531442923
1595, -17.678839507477505
1596, -3.9733539756787195
1597, 10.020504148852751
1598, -7.3933841422565365
1599, -17.844543573183728
1600, -10.808352791963443
1601, -3.9424568540569
1602, 13.38074450660747
1603, 30.93472682192487
1604, 27.127001957126367
1605, 19.785798444585907
1606, 11.984563904585684
1607, 2.5885928731875083
1608, -6.973630670611328
1609, -4.440016728043929
1610, 13.019599582921956
1611, 18.505825028822528
1612, 20.281113707010718
1613, 20.026571861776574
1614, 9.11333049033533
1615, 10.157320019506415
1616, 15.74562496549538
1617, 4.335467955398599
1618, -0.39251714784222713
1619, 4.4280603406034516
1620, 15.848191424251354
1621, 27.524895466906855
1622, 27.417952991786024
1623, 12.935825259786952
1624, 1.1808869020289876
1625, 5.784689624226985
1626, 18.278680201333373
1627, 9.923457344945973
1628, -0.4159962019643899
1629, -7.15651629829722
1630, -9.474242346219398
1631, 0.48203371567569775
1632, 7.541103838204208
1633, 4.158705617377564
1634, 8.722560695853872
1635, 23.07706403165116
1636, 38.011459561406355
1637, 37.55655749298626
1638, 42.95246782845106
1639, 46.818037921822
1640, 35.77165226843681
1641, 33.991162126949575
1642, 25.681690653207397
1643, 5.444135578456553
1644, 2.3527209443363972
1645, -1.580262561539712
1646, -10.16580508306788
1647, -13.902092540300146
1648, -6.174472327539888
1649, -1.344216073141979
1650, -8.840346366706171
##END=



