##NAMES=
##LOCALITY=
##RRUFFID=
##CHEMISTRY=
320, -10.555651038642281
321, -7.756284045348366
322, -5.988730689024123
323, -8.450061935995109
324, -12.142401620062628
325, -11.74041051651875
326, -7.358160665027754
327, 0.44049301738232316
328, 11.60035760554183
329, 18.941519167831757
330, 20.74827373728931
331, 20.884511014735835
332, 21.4704518032122
333, 19.945414142186564
334, 13.068782357669988
335, 2.462593079631006
336, -7.126955163722414
337, -15.29330352757006
338, -16.00091980506295
339, -8.43510708310805
340, 2.576680003495312
341, 15.98750192605894
342, 23.438410076571017
343, 18.26359414090166
344, 7.294076114194468
345, 3.9074642120904173
346, 6.569148234661043
347, 9.768737064112429
348, 12.37733186393234
349, 15.44874113053811
350, 19.107016915269014
351, 18.085302505205618
352, 9.669849050163975
353, 2.537703520139985
354, 4.704836682548375
355, 14.025706898900353
356, 25.74570830759876
357, 37.37952813783977
358, 44.71181419760069
359, 47.363954219378684
360, 48.01767390009627
361, 47.453593536225526
362, 42.32672263149925
363, 30.535440185813968
364, 18.62444682254045
365, 17.416174329147907
366, 21.90157720456773
367, 16.537416996244247
368, 4.514018956067048
369, -1.5526570610345516
370, 0.2606523058238963
371, 14.491895505128014
372, 43.94103719081977
373, 72.63394375897042
374, 90.56095954519333
375, 98.13803983937942
376, 95.97686445703766
377, 84.82203421291342
378, 66.83678307831269
379, 44.78922337621225
380, 34.57006167644886
381, 41.07371645546482
382, 41.447884612081
383, 29.084185195972168
384, 12.32607285531958
385, -1.943972383790424
386, -13.514058730953366
387, -21.22745311496783
388, -26.023709122712717
389, -28.88642022699969
390, -29.302917225426427
391, -22.74738195593909
392, -8.99175032920266
393, -1.5838291977679546
394, -4.303781554491252
395, -9.675059119163052
396, -13.614171622250069
397, -20.89887072784495
398, -37.563033716323844
399, -56.60021354622677
400, -59.58969199504645
401, -48.535499576141774
402, -33.70675558843868
403, -16.470112300540677
404, -9.47000627239504
405, -15.050612644003195
406, -16.172494825683316
407, -4.616087939807585
408, 11.754349053018814
409, 26.365852701783297
410, 46.80055328671642
411, 86.02227085673712
412, 143.82190391234872
413, 211.59140650808604
414, 274.1943523443333
415, 334.09178218517627
416, 391.2211480209753
417, 437.8839077659495
418, 471.5780054746001
419, 500.7056488514854
420, 530.4909540579738
421, 562.1598005028709
422, 597.18593944854
423, 627.7407249435146
424, 636.4270556499368
425, 624.6803224416099
426, 600.8605486543611
427, 566.3046420150304
428, 524.6254611867043
429, 476.5104891140545
430, 420.1432609241174
431, 354.85580515816946
432, 286.4679114601149
433, 219.06897962736366
434, 150.21048237139985
435, 91.66751513494273
436, 44.26420696624882
437, 19.124025753908427
438, 10.580578941836393
439, 1.6611415731722445
440, -9.19209770443831
441, -13.826971582640908
442, -10.661987964816035
443, 1.0377443658344419
444, 22.602586845666337
445, 55.41113804759607
446, 102.21320730075968
447, 146.662007025423
448, 175.29101095922852
449, 190.28889977006293
450, 196.52415935320187
451, 196.38122628214478
452, 198.187211777039
453, 202.05520669923953
454, 203.29819661330293
455, 200.95197640599235
456, 193.87134416655772
457, 181.75801010287705
458, 168.74699704186696
459, 157.15846590275396
460, 140.82321973235776
461, 113.67066026792872
462, 79.47886420305622
463, 44.76730508916171
464, 15.1161506661756
465, -9.598093069152128
466, -29.71249903329226
467, -37.59614550040533
468, -34.28873464174649
469, -33.57400751890236
470, -38.123482384518866
471, -34.5534890893141
472, -17.103513658757947
473, 0.45263524687379686
474, 9.571851260271615
475, 6.979983706893108
476, -11.027929559903896
477, -34.238170043185164
478, -43.26151304290488
479, -39.15876282233239
480, -23.659684786315665
481, 1.076910617309295
482, 19.07041178424697
483, 27.689457010646038
484, 27.98163956615099
485, 21.048356864144807
486, 26.407679123193702
487, 51.233547560874285
488, 70.79782438561688
489, 71.05794131223865
490, 60.468785637154724
491, 47.99028729492147
492, 34.80813464388848
493, 22.97650028193948
494, 16.69520554765313
495, 20.44677771233819
496, 27.449863568012915
497, 14.152635778985314
498, -17.73133084075471
499, -37.41802226977234
500, -41.5909559673255
501, -47.67581368251467
502, -61.19894122050846
503, -65.17141417146377
504, -50.94046288439222
505, -29.510462175461726
506, -8.396803458464092
507, 17.55335215660216
508, 54.76914686004784
509, 89.23384680218714
510, 96.8027709386879
511, 83.58859029900304
512, 69.86938127497342
513, 58.97104625857446
514, 65.88600580583079
515, 91.9904168431076
516, 136.41524459142784
517, 187.54257156337098
518, 222.1382797976985
519, 233.27405046095555
520, 234.66651114547494
521, 232.8171241933851
522, 223.79036867312425
523, 204.76009409420385
524, 178.45383516620495
525, 147.9315976747057
526, 115.11334331390572
527, 83.2719636851607
528, 64.09129260005739
529, 63.97533493127685
530, 80.75338245263629
531, 98.47518829713408
532, 113.93399313419104
533, 114.1287046634252
534, 98.708772462046
535, 82.91409830204793
536, 70.15366219325551
537, 56.60557282575883
538, 46.92259715856653
539, 52.55283296629568
540, 80.26027932817397
541, 107.93307113024366
542, 123.12391937334542
543, 127.71530278728187
544, 123.7937952843049
545, 108.48444488340192
546, 77.11221547365494
547, 39.374549726248006
548, 21.85106339626691
549, 22.907480462013154
550, 40.025041500682164
551, 70.29834161980034
552, 88.90610592803205
553, 92.8918466048217
554, 80.27966598668172
555, 52.302860532048726
556, 26.83310661062569
557, 11.79621737222078
558, 11.429662901437041
559, 27.47712944732484
560, 39.09533845722308
561, 35.735264138522325
562, 25.935079796868195
563, 16.116477488991222
564, 5.876147438882981
565, -4.6329380465103895
566, -14.993675617810368
567, -24.012619362330042
568, -31.68794377024551
569, -36.94747924524199
570, -38.02886905721607
571, -28.70747683042009
572, -11.281987198245588
573, 2.002430938507132
574, 10.039949760200216
575, 7.049495459877107
576, -5.668104105835482
577, -12.497970995458672
578, -11.531328545207543
579, -11.465929240842343
580, -14.599024321917568
581, -17.788703499991243
582, -19.92824264378487
583, -16.88531677061019
584, -6.17251607356593
585, 13.478368583277188
586, 44.14990292119819
587, 66.03308677526911
588, 62.560541386972545
589, 44.51352920049521
590, 25.065246277085862
591, 8.130715091450838
592, 0.8170381961745079
593, 1.84521185480844
594, 9.97815655498107
595, 19.96604457457306
596, 14.344631601153196
597, -0.3592696798286852
598, 2.2340240940065996
599, 20.235227333696457
600, 32.84637202480735
601, 37.60054957236571
602, 35.10589675023584
603, 25.19494182759081
604, 5.64418043868136
605, -21.42296454074858
606, -35.04769520745049
607, -30.833112641244043
608, -25.056824242459697
609, -22.828064705052384
610, -14.475820489202306
611, 4.890648901403438
612, 24.456610408561573
613, 36.45974632656453
614, 40.0507695651695
615, 34.62262690355328
616, 23.62084174413576
617, 10.181136188663004
618, 4.159344652571235
619, 15.230230538940305
620, 34.84677472538806
621, 47.38500136267612
622, 49.302230743926884
623, 34.43018025093443
624, 11.184601472707072
625, -0.4707330040382658
626, -2.9198919932932768
627, -1.501931052828695
628, 1.2790789074524582
629, -2.0193377524556126
630, -9.515062694713379
631, -10.807882482534296
632, -5.250849122615364
633, 5.905219278160075
634, 22.396646631957083
635, 36.84552421828175
636, 46.73908184814172
637, 41.812520130562916
638, 22.921063727580986
639, 17.248593996791897
640, 30.799633293684565
641, 33.9296285683522
642, 19.807345955857272
643, 8.514893221590683
644, 7.380663337447004
645, 7.258373973076232
646, 4.887448458085601
647, 12.228591594199315
648, 35.29247410292737
649, 49.87838056604596
650, 43.54806440835637
651, 33.835321705068964
652, 31.920969147737196
653, 26.91661828413089
654, 10.707192126538757
655, -5.008372467480513
656, -12.5491226186723
657, -16.149914334772802
658, -19.716739416273413
659, -10.735905714915134
660, 26.946077388800404
661, 71.49802352588813
662, 85.29709166929752
663, 80.87246020637667
664, 78.00104684935377
665, 75.72786274888949
666, 71.97256146292239
667, 69.01057170033255
668, 71.41967915502028
669, 70.62280068320615
670, 47.35781422612308
671, 11.908299544172223
672, -7.440946292108492
673, -12.75129538676083
674, -8.32938763119455
675, 2.485851164030464
676, 9.971686071326985
677, 12.234977217131018
678, 6.25441788009266
679, -3.441281626818636
680, -2.5915299340686033
681, 6.2219415472382025
682, 6.829570181394956
683, -0.19399557984525018
684, -4.711939908996101
685, -6.549141636103741
686, -8.64585673439251
687, -9.38157348020286
688, 2.653748419454132
689, 26.091423216444127
690, 36.58071926269258
691, 32.78348541972446
692, 29.88193567413782
693, 29.399719932713197
694, 24.1830591518883
695, 14.034903317360659
696, 6.999333500827561
697, 4.837847663339744
698, 3.284680427060266
699, 1.6100320749519597
700, 1.9221932354848832
701, 4.391010626255593
702, 6.029864307794014
703, 6.069384933190122
704, 2.864553452266591
705, -2.5254976917403837
706, 7.042939921708239
707, 34.91270244204679
708, 57.97495404406982
709, 70.76480933652238
710, 78.7040573172826
711, 82.86395413904393
712, 78.4350691191321
713, 65.31514127050104
714, 58.47895798165155
715, 60.956049671392066
716, 56.546440771894595
717, 40.916247857368035
718, 20.00027897441123
719, -1.407915564992436
720, -12.569517092984825
721, -11.51220544120224
722, -9.113741875936284
723, -7.738009885933025
724, 2.9880266458467304
725, 25.497860461638084
726, 35.72448956492008
727, 28.706554674262406
728, 38.65116998600752
729, 69.42103905731528
730, 83.13067367694202
731, 70.76338438345374
732, 65.07949628312144
733, 73.2961454281276
734, 62.043774732265774
735, 24.486543895382056
736, 0.33147521717728523
737, -3.949295952402281
738, -11.8655859596156
739, -28.470347017053427
740, -29.66039338946848
741, -10.765452582138096
742, 5.170216542542221
743, 13.427755932804757
744, 17.323083049786874
745, 18.39411972700509
746, 21.831536953131035
747, 28.10060887502459
748, 29.826482862128614
749, 25.51859850283472
750, 17.35156313781681
751, 6.532117429297614
752, -0.6606082212983893
753, -2.7176830372336553
754, 7.681391848768726
755, 29.45740554923941
756, 37.148897279904304
757, 27.610837179233386
758, 10.268803500938702
759, -9.949671097900136
760, -21.95525174996874
761, -24.809042931667136
762, -18.668885033391234
763, -4.860072434037647
764, 8.323478605741002
765, 20.963004791405183
766, 32.54519438039915
767, 40.83905507772943
768, 36.44128867978816
769, 22.578316794868442
770, 15.333842003575228
771, 16.32375278501604
772, 20.583235802554555
773, 30.489346866981577
774, 51.41777446548167
775, 73.55004840385027
776, 67.56600460316531
777, 41.006156600361464
778, 17.692696636545406
779, 2.1051483097508026
780, -3.8215771359937207
781, 0.20058305595102865
782, 16.105492398519345
783, 38.60702160799701
784, 53.391160400343324
785, 64.50366898936227
786, 78.96564582566225
787, 89.04098236356276
788, 83.51706081154407
789, 71.27868642365775
790, 63.5401943726265
791, 59.73428378306107
792, 59.21029100636315
793, 60.25286968099408
794, 61.254709937210464
795, 56.08168657234273
796, 39.92029737200028
797, 18.948579172484642
798, -0.523709445028544
799, -8.462633877263215
800, 0.8761298235931463
801, 10.608531079832574
802, 13.025198032770277
803, 14.429187360444303
804, 17.509707703833556
805, 13.458907334018477
806, 0.2380756609409218
807, -5.850993270601975
808, -1.1077324894249614
809, 6.667026518325656
810, 15.84665423873048
811, 24.01317026500419
812, 30.011566790408324
813, 28.784110838323613
814, 21.27095566155367
815, 17.445968813651234
816, 20.11385454367519
817, 25.70417969173286
818, 32.51738521392963
819, 35.19389798260272
820, 32.36884950276726
821, 21.41953706094864
822, 5.9929641131366225
823, -3.9341841972836846
824, -7.64969718503653
825, -2.9534216752763314
826, 3.267103793388742
827, -0.5888704204789974
828, -7.865048771918737
829, -9.707305809571153
830, -5.570120569617757
831, 5.660970750392153
832, 16.28327419877678
833, 18.4597666540285
834, 13.886607709635427
835, 3.806293350779015
836, -6.040761643364021
837, -13.197491774985792
838, -3.645135367124567
839, 27.25758980491537
840, 43.21455595689713
841, 34.564983823994226
842, 27.311488219795137
843, 27.097343243584874
844, 25.14017169202816
845, 21.864821564205158
846, 31.80676206040789
847, 48.021970223815515
848, 42.10763242943085
849, 20.522388658052478
850, 15.124080563300595
851, 21.35175292248914
852, 15.764959834468755
853, 3.884056791565854
854, -0.7959444264515696
855, -2.5153209992668053
856, -7.723275227072008
857, -10.383551273056582
858, -3.1970699381581653
859, 3.0544603610214835
860, -0.6526634039664714
861, -9.479576561068825
862, -20.64408865662699
863, -23.372234563883467
864, -12.804684292237653
865, 2.566426721145035
866, 20.315470153482238
867, 34.72809267087359
868, 43.55410316484813
869, 41.203749277921816
870, 29.678828539652386
871, 25.092438490657514
872, 27.081407887028035
873, 25.649956274989563
874, 18.999765429250147
875, 4.796318476920533
876, -8.426049656288342
877, -5.161581848657079
878, 9.788170364015059
879, 29.44400431419308
880, 45.482239401905645
881, 50.10707962492961
882, 43.31403667117138
883, 25.444055185051184
884, 12.133121720316922
885, 12.377309018700544
886, 12.129910889651
887, 5.438541974804139
888, 2.178912259054414
889, 3.9842361762694054
890, 6.084396525576267
891, 9.487395905484846
892, 23.2945619852444
893, 42.3405511865094
894, 48.09857569115866
895, 43.07242036585558
896, 37.15281199490437
897, 27.051586646032774
898, 6.3266100961081975
899, -10.594509076850045
900, -8.841849775762057
901, 1.0828692997465623
902, 11.450582389082228
903, 14.815743033253966
904, 7.554732820021854
905, -2.17129899264728
906, -10.77060093060254
907, -12.100863416954326
908, -5.058648291130339
909, 7.0473447040158135
910, 20.69909789985195
911, 18.224017215257845
912, 4.826458785723389
913, 1.4019144814305946
914, 9.181606188724345
915, 29.53445552593348
916, 48.26251189606319
917, 47.77997102102472
918, 34.256400279910395
919, 13.240152975300589
920, -3.404130219372746
921, -10.98903035414969
922, -2.879699423801412
923, 21.369054123016667
924, 30.837364034417533
925, 21.0364222858243
926, 12.080762113117544
927, 8.614614928604169
928, 10.914320520398633
929, 18.46251562878342
930, 30.014045576178887
931, 41.63735437579089
932, 50.077932120165315
933, 54.07766798532157
934, 52.38775404572971
935, 46.00347551944196
936, 35.46833996856958
937, 18.24218756135724
938, -2.898858082168317
939, -7.7775861593381705
940, 6.229933299361164
941, 21.796770286946867
942, 31.55470725743953
943, 22.039084081924102
944, 0.315409845900831
945, -13.100017834116898
946, -16.714706952664528
947, -7.917862969197358
948, 6.882586321544295
949, 22.01183279882207
950, 26.019213845207105
951, 13.829906349434168
952, 7.483616287716359
953, 14.281635334751172
954, 19.516017973504404
955, 19.8891834840083
956, 15.041319356181248
957, 6.5883836797361255
958, 0.21969583738018628
959, -2.93818691351953
960, -0.5230176754462263
961, 2.330758962373693
962, -0.2667897210735646
963, -4.226665487345599
964, -6.9486773754561
965, -7.039979099847187
966, -4.113123941203867
967, -0.6601614750275075
968, 3.3381898062316395
969, 10.231253760663549
970, 19.51445665294932
971, 29.787511909492878
972, 35.619743572062816
973, 26.975588962952315
974, 9.874716893174991
975, -7.630562985976212
976, -15.869458350302466
977, -9.136884698074937
978, 0.023845780664032645
979, 6.668067910811715
980, 4.40511017019071
981, -4.451712333149771
982, -2.240975363321013
983, 11.897578845026601
984, 35.13029410796662
985, 56.534074324803896
986, 61.35977788212358
987, 61.17039864915614
988, 65.85745638044227
989, 66.43554537311638
990, 58.57170705479302
991, 43.685042729581255
992, 23.413674934457504
993, 7.188886701106185
994, -0.5658618331749494
995, 15.18204821432846
996, 41.47263818663805
997, 47.51201889323829
998, 38.408983326957696
999, 20.349002849658063
1000, 5.4841991061557565
1001, 1.025169205432121
1002, 3.5300439636394003
1003, 10.299051819515626
1004, 8.312111334376823
1005, -1.4816813376000937
1006, -8.26107724457006
1007, -10.270866004459094
1008, -4.7781138439968345
1009, 1.0343073692970393
1010, -0.336412047442991
1011, -1.8264506733416965
1012, 0.10612945162210963
1013, 0.7939420190100464
1014, 0.08077809778478695
1015, 5.725421033370367
1016, 15.036765851497876
1017, 15.295733543718143
1018, 8.504730629759706
1019, -0.14692601484694023
1020, -4.763784118326839
1021, -0.7082213487319677
1022, 4.513185956727284
1023, 7.977279146666206
1024, 13.558067403286714
1025, 19.67441481302285
1026, 13.050313588994413
1027, -0.97142096184416
1028, -4.133792002327027
1029, -0.07587938590859267
1030, 5.760298704155957
1031, 18.213408214715855
1032, 38.485147106582644
1033, 44.96866791146158
1034, 30.77620509337339
1035, 3.6058081139663045
1036, -24.940468419488298
1037, -23.984583922384445
1038, 0.7065827766332404
1039, 35.66671046965757
1040, 63.00288266781581
1041, 66.91825754954198
1042, 53.12165046925384
1043, 26.99585106173072
1044, 13.584240572667113
1045, 16.062144054702912
1046, 15.038866351896559
1047, 9.217757236424404
1048, 1.1142618790313463
1049, -8.363434824188516
1050, -18.20709324285781
1051, -23.52508769436099
1052, -22.114781928521552
1053, -18.384523081173484
1054, -13.587859437066982
1055, -9.028150589683719
1056, -4.620845582011043
1057, -0.2633496309122165
1058, -1.103162474430519
1059, -13.514422620452478
1060, -24.898572423119276
1061, -28.418529634546303
1062, -22.07499536934256
1063, -7.382963761768224
1064, 3.714317647124062
1065, 9.955454560220005
1066, 10.486784481161521
1067, 13.047443185061638
1068, 26.729630970395192
1069, 53.40087655799971
1070, 94.98808497938353
1071, 145.31971302877992
1072, 193.59528943567784
1073, 245.9680113013701
1074, 298.42765196020355
1075, 341.01760899371493
1076, 360.6216408615037
1077, 345.54561077435255
1078, 323.53748463932743
1079, 306.7271564748112
1080, 289.2358855363141
1081, 269.17008780085825
1082, 244.41332650746472
1083, 207.080509683954
1084, 144.0145408834387
1085, 85.65145630494726
1086, 63.11759097069125
1087, 53.228466990457946
1088, 45.54440826924747
1089, 23.99830448915236
1090, -3.6963159180477305
1091, -20.978072160838565
1092, -27.171778648144482
1093, -21.455993076595405
1094, -14.956188524549816
1095, -14.026829643054043
1096, -23.208282986135146
1097, -37.73101478310946
1098, -30.90109384989455
1099, -11.802910796724973
1100, -2.6450152367215196
1101, -2.570489403063675
1102, -10.354361627780236
1103, -12.128318636850963
1104, -3.1772737537326066
1105, 13.963930135616465
1106, 34.68470066084319
1107, 42.60148684022306
1108, 45.65313231381788
1109, 53.88015417276256
1110, 63.533249324604185
1111, 70.8625458534857
1112, 60.28899021221059
1113, 32.076053989131196
1114, -1.0686604060615537
1115, -25.397281354764345
1116, -24.083440040413734
1117, -10.831462532897149
1118, 5.65935421716631
1119, 13.95267659971887
1120, 12.548422626024148
1121, 12.93056659386366
1122, 13.793177995132282
1123, 10.40982556936251
1124, 3.415042527526566
1125, -5.68534773110332
1126, -8.946314718901704
1127, -4.885609820373247
1128, 1.46127578069445
1129, 6.907920206813287
1130, 5.538272961602615
1131, 5.407401417401161
1132, 13.72795618067994
1133, 31.758481653719628
1134, 58.96257185953846
1135, 78.82975920486842
1136, 89.09430386830763
1137, 89.1024341434495
1138, 88.45157934859662
1139, 95.31520821387176
1140, 98.50544078010125
1141, 95.46764397891548
1142, 95.47284585751822
1143, 96.52634592668983
1144, 90.93628594044094
1145, 85.53898952476584
1146, 85.39469007899243
1147, 65.2304648739264
1148, 22.0078172358144
1149, -8.51890455904686
1150, -22.415263905958454
1151, -16.591508306531978
1152, -3.980743628257642
1153, 4.8693855859810355
1154, 6.2487109393005085
1155, 0.48479098650886954
1156, -4.590664914560421
1157, -5.395762300733168
1158, 3.705524473219157
1159, 11.752007643653087
1160, 10.434782603924305
1161, 11.086348107797221
1162, 16.157450417090786
1163, 21.889470739041826
1164, 21.539542760169297
1165, 5.0580157457325186
1166, -8.710439317530017
1167, -10.294499528361484
1168, -3.574438755288611
1169, 7.712244126163569
1170, 12.551212625287917
1171, 9.304265671132725
1172, -2.6064915058987026
1173, -10.699187123342654
1174, -9.112217643134954
1175, 6.24688072795152
1176, 29.851917557808065
1177, 41.827306914214205
1178, 43.80864486450355
1179, 38.29928084592302
1180, 27.87893554131324
1181, 13.972823712587797
1182, 0.3527703874751751
1183, -8.598138444861888
1184, -4.188214427174444
1185, 6.4234289615669695
1186, 19.346781651284346
1187, 34.15704965475152
1188, 44.653869916247004
1189, 31.239990896064683
1190, 10.777204212645756
1191, 5.308690051027952
1192, -0.4001780660410077
1193, -10.687835088834618
1194, -12.783879847956996
1195, -9.48763660605664
1196, -9.94181184045783
1197, -0.3579126275685667
1198, 26.60402852621246
1199, 31.92356185751396
1200, 14.562607585944988
1201, 7.156916989365072
1202, 10.26865790926422
1203, 22.769132905898914
1204, 45.93798775754067
1205, 72.4277924329208
1206, 74.75180586733313
1207, 60.13606619145776
1208, 50.57106918389309
1209, 41.73460882902282
1210, 30.243868705462774
1211, 14.853611948538855
1212, 1.1796204469669647
1213, 0.8574548182109538
1214, 9.129631061600321
1215, 20.464181975876727
1216, 23.76877015823311
1217, 16.299801333277628
1218, 2.05816167392868
1219, -8.807431933257249
1220, -3.2723593438322496
1221, -1.9883691094069036
1222, -12.218463577087277
1223, -11.801668663471446
1224, -2.38079729150968
1225, 4.317444671290559
1226, 4.562654727741574
1227, -3.7231856213575156
1228, -16.469809734962382
1229, -28.18712875777146
1230, -23.425608525556072
1231, -9.329536324757555
1232, 5.865541475562168
1233, 8.210007945942834
1234, -2.8117501064161843
1235, -10.107697006879334
1236, -12.735637237773972
1237, -11.176605155596462
1238, -8.502377762975357
1239, -5.736629575709685
1240, -2.1182182093757547
1241, 1.1190266904300188
1242, 1.7235154650115874
1243, 9.625127880027776
1244, 28.78683045220714
1245, 47.662119714793334
1246, 65.93981597434504
1247, 93.60565660791917
1248, 118.09680638923919
1249, 129.81807151317253
1250, 118.45709957806866
1251, 94.45674486708594
1252, 88.26127860587894
1253, 102.00673022590854
1254, 120.16800540865779
1255, 136.74232059102997
1256, 144.95512080739263
1257, 130.35685917308774
1258, 120.48238095976649
1259, 137.0357517472239
1260, 150.5229938529501
1261, 151.36659987018174
1262, 135.35828030395533
1263, 104.98944242137986
1264, 64.92862349964389
1265, 47.09113401988088
1266, 51.790937842004496
1267, 61.7043242579216
1268, 71.75223523967725
1269, 82.42017996639697
1270, 80.68986849840485
1271, 67.52232978440725
1272, 59.658606057798806
1273, 51.31365974631353
1274, 36.02716643403119
1275, 25.758451021424207
1276, 22.944485130248268
1277, 11.993591031849064
1278, -2.0053931779220875
1279, -14.773742344904804
1280, -18.833732505402168
1281, -12.802769521850223
1282, 0.9909991840872863
1283, 14.533007949994953
1284, 19.256808873979026
1285, 19.864762516050632
1286, 18.954331186846048
1287, 20.209186685882287
1288, 25.968230883600427
1289, 35.98291116370274
1290, 28.261836703048175
1291, 6.232274955985304
1292, -4.207972594263538
1293, -9.632113027987998
1294, -14.3388290591638
1295, -3.7368945140215146
1296, 16.459702777212897
1297, 22.122524276093827
1298, 29.582332110728657
1299, 46.338607656073236
1300, 41.63864059202979
1301, 18.54730761800556
1302, -4.098556967906916
1303, -17.67307660828328
1304, -19.017266320223825
1305, -9.841631079505078
1306, 0.2713911824698698
1307, -3.9579368337676897
1308, -0.3591180145713224
1309, 17.72862883370135
1310, 31.278851448976184
1311, 34.10214174650355
1312, 21.395828833876294
1313, -2.601848015358428
1314, -26.200433226424593
1315, -15.283122932505194
1316, 5.520942256564922
1317, 12.261947044311455
1318, 30.858014480098518
1319, 57.26292417417062
1320, 65.78513493001856
1321, 63.623327393803265
1322, 56.98880247965917
1323, 46.78116148843901
1324, 38.09414247817176
1325, 39.866276834171
1326, 31.702880725155865
1327, 6.768766198190406
1328, -16.28288584724305
1329, -24.55712940797457
1330, -3.089004879173899
1331, 25.281214236618325
1332, 45.08419914267415
1333, 33.67867599905958
1334, 12.478249124193553
1335, 2.976739018252829
1336, 1.8580192053414066
1337, 5.433496557759099
1338, 7.2519299907330605
1339, 1.3312170189233257
1340, -10.72178467096137
1341, -0.057616238113496365
1342, 25.23139531937295
1343, 45.462116603907816
1344, 58.55573973776836
1345, 62.40806934516695
1346, 52.39252811814458
1347, 37.72174012923779
1348, 25.34216870703858
1349, 4.723760117653455
1350, -15.743588337590609
1351, -17.128106597083843
1352, -1.158440015409269
1353, 25.490231674096776
1354, 30.05139313601012
1355, 19.431899695197444
1356, 7.445784992302379
1357, 3.317049189816771
1358, 8.553885366962731
1359, 21.84613609796179
1360, 24.32578628798001
1361, 10.69031985453148
1362, 19.502355393915877
1363, 43.80379154797856
1364, 60.39550437655407
1365, 61.030092584579506
1366, 42.89086301162206
1367, 6.426516959688797
1368, -19.01954759481805
1369, -17.1419252609835
1370, -8.570410823600014
1371, 1.5922273915216465
1372, 10.841251760115938
1373, 14.903190770218316
1374, 13.46193197773573
1375, 10.952661802346029
1376, 8.795812962007403
1377, 7.456048629405359
1378, 4.780638188097328
1379, 4.8323761426768215
1380, 15.330852524498823
1381, 20.27618238657533
1382, 17.32257754333159
1383, 19.7854793829315
1384, 22.35747718804305
1385, 20.216003505350272
1386, 15.01926105024404
1387, 6.4487497865384285
1388, -5.238826439365994
1389, -9.65055951626232
1390, -4.3045732924802
1391, 7.0224107339677175
1392, 12.675508840915882
1393, 6.818142481705081
1394, 4.452905979606612
1395, 8.572316466164693
1396, 19.85824629643207
1397, 24.710085532504763
1398, 20.963778917044692
1399, 13.440550003812405
1400, 10.309204453636767
1401, 15.977223062609482
1402, 24.192134367248627
1403, 26.165423276853744
1404, 15.070424626935164
1405, 7.481458978797718
1406, 4.926220733758328
1407, 0.7523486712873364
1408, -10.204547320964366
1409, -24.02504648107856
1410, -18.947741160094665
1411, -2.066023640657477
1412, 18.933456561124103
1413, 29.915209155199136
1414, 28.030166527930305
1415, 14.970096431208276
1416, 19.90193868578649
1417, 32.526946793779416
1418, 16.111794958391556
1419, -1.013489129965592
1420, -4.273128594476702
1421, 7.38095409458856
1422, 32.12504481345695
1423, 60.02747081256075
1424, 48.83885565210426
1425, 20.357648656974334
1426, 12.799150507547438
1427, 8.300313756323703
1428, 1.4375319787386616
1429, -6.878259371030708
1430, -13.062661312440241
1431, -15.589263523547288
1432, -14.22796817851031
1433, -8.584330481018242
1434, 1.0938476490400717
1435, 10.450067062948165
1436, 24.008875538246457
1437, 42.620382639966465
1438, 36.22200872985945
1439, 15.057827757800169
1440, 11.933750400852432
1441, 19.201198744982094
1442, 33.78050145440761
1443, 51.14361468963148
1444, 56.35724562364862
1445, 45.65098819221771
1446, 36.3565431727211
1447, 22.967771646996425
1448, 2.4644882813447566
1449, -7.187861001369583
1450, -10.344636161475137
1451, -13.74438464354057
1452, -4.2945230545446975
1453, 9.348218240096912
1454, 5.693119590587685
1455, 3.8997132280067035
1456, 8.787332587621677
1457, 16.667121292260845
1458, 32.06355753239245
1459, 49.30347962520591
1460, 39.36422491207668
1461, 15.355452576688094
1462, -7.59348394575818
1463, -8.451709967805755
1464, 0.6358479387101852
1465, 5.576510252819844
1466, 0.7645647168440064
1467, -4.460027312291459
1468, 2.5742655402277705
1469, 11.361663146485853
1470, 12.818428415809649
1471, -1.8333744690567073
1472, -8.719851151284047
1473, -1.8923173611381117
1474, 15.385591075264301
1475, 26.568940985079053
1476, 27.179477789464045
1477, 25.0258214669052
1478, 25.81788403086921
1479, 31.446133589144893
1480, 38.31843042609444
1481, 38.7780002465945
1482, 30.376312210289598
1483, 25.16084338783412
1484, 20.608612470727167
1485, 13.497275008731776
1486, 6.784614796094729
1487, 8.067086813521883
1488, 22.561699879154958
1489, 22.822081988849504
1490, 12.995223338272353
1491, 5.072048404257657
1492, -6.9045769955228025
1493, -12.656918385067002
1494, 4.498544936907592
1495, 4.132147556768132
1496, -6.51233887682497
1497, 6.4946450506170095
1498, 21.077925620465294
1499, 29.274422480172916
1500, 32.42004690494355
1501, 21.045840727092127
1502, 4.059537579298649
1503, 11.529622830477138
1504, 13.014557069448983
1505, 0.6211440736726672
1506, -9.388025417000563
1507, -11.150841395364296
1508, -3.283604130561571
1509, 10.567755882710571
1510, 13.140770271095562
1511, 2.949219287540018
1512, 6.049836550546615
1513, 20.180168587234448
1514, 37.45152799480661
1515, 41.38249010580171
1516, 32.64378242259454
1517, 15.418195018423376
1518, 0.6412970531555402
1519, -6.144145944589809
1520, -4.775827873026401
1521, -3.3006939031483853
1522, 1.9276015916227607
1523, 11.703274222656091
1524, 14.633705806825901
1525, 13.8144342927028
1526, 12.795507510437801
1527, 13.736573079338086
1528, 12.931213034965822
1529, 8.34785100406748
1530, 3.2886975420738054
1531, -0.6942833123466698
1532, -1.8897506329458338
1533, 5.798486132492371
1534, 5.499376479254352
1535, -9.27862394414592
1536, -15.193439237944858
1537, -6.378220509034463
1538, 15.034996133673985
1539, 27.446978522857762
1540, 25.843611659846374
1541, 11.622375060673221
1542, -3.1365458983045755
1543, -3.6006512509493405
1544, 8.184193431727408
1545, -3.7293745211979967
1546, -4.371511160363752
1547, 13.751575762764787
1548, 5.531330388641209
1549, 2.8119739610760917
1550, 10.778312385731851
1551, -6.66685166100865
1552, 0.4588289138273467
1553, 31.696594314247932
1554, 19.25748569284997
1555, 10.317283529944916
1556, 11.682905996269255
1557, -9.179499416060935
1558, -13.784875442810062
1559, -3.107893356663226
1560, -7.26436191722928
1561, -7.13418939313965
1562, -5.090278770859413
1563, -14.805051681527175
1564, -12.012301681187637
1565, -4.587659648521594
1566, -11.673095593913786
1567, -5.54085722260038
1568, 6.316260834505783
1569, 8.12133807120631
1570, 11.96479738826747
1571, 17.27664613126194
1572, 25.864508400046134
1573, 63.7877783708027
1574, 119.69384316176888
1575, 166.48555645015267
1576, 181.7724876623863
1577, 194.36010801412226
1578, 218.13174585568936
1579, 230.7227590401617
1580, 244.8310682612339
1581, 256.074227215521
1582, 233.8604686938736
1583, 218.78028338954664
1584, 217.8158847815298
1585, 210.1921501602369
1586, 208.1374942320133
1587, 203.8297210962901
1588, 180.18277374909053
1589, 158.01677873463086
1590, 122.45292544692416
1591, 56.50014168341977
1592, 11.479808303768323
1593, -14.138747856623013
1594, -22.75614442476035
1595, 4.4396486379901035
1596, 23.50341566510815
1597, 14.655686356967863
1598, 16.983997685358418
1599, 7.3914813735405005
1600, -12.177767375843587
1601, -15.525660249888233
1602, -19.74757384296663
1603, -20.913656292676706
1604, -4.650501599469862
1605, 7.056157103615078
1606, 17.574357696506468
1607, 31.73320595151563
1608, 30.642794967493273
1609, 21.91563286356768
1610, 14.690181460247004
1611, 13.024568851810272
1612, 17.741069941786236
1613, 20.63358546386098
1614, 6.407832814525591
1615, -7.349348946001783
1616, -7.4356357546053005
1617, 16.881623252818827
1618, 36.061131885909845
1619, 38.45475463649768
1620, 22.405988338085535
1621, 5.708593873695236
1622, 3.033354277549506
1623, 12.45177368127952
1624, 3.1761324279932523
1625, -4.532558176166731
1626, -4.17979492550262
1627, -0.8680501017086044
1628, 7.81781280001519
1629, 10.260766554936026
1630, -3.358539550493788
1631, 4.411279679271956
1632, 16.2447093656408
1633, 15.781720346968086
1634, 13.300576805265564
1635, 6.9880604007737475
1636, 3.5285828693715757
1637, 16.810800782078104
1638, 28.85385398204221
1639, 36.31215697879793
1640, 40.48075988275173
1641, 35.39659910113414
1642, 23.629163318148358
1643, 10.110480300856807
1644, 3.4324710647756547
1645, -1.7639839137930267
1646, -7.1593237463225705
1647, -11.32644573550192
1648, -15.5591563680116
1649, -9.092384766561509
1650, 12.529219309781638
##END=



