a,b
320, -35.09268122470712
321, -18.07652451390186
322, -2.8606345777316164
323, 13.77743600910253
324, 31.113652541966985
325, 43.57641144570334
326, 50.16699041800712
327, 47.33652258580787
328, 35.55449779087121
329, 22.77715921557956
330, 13.36966760829273
331, 10.36126617024729
332, 15.629054831110807
333, 31.34139261758537
334, 61.1451691326065
335, 92.41402703958647
336, 98.97496214168586
337, 83.05325178316434
338, 67.80412439233896
339, 57.2211935598516
340, 51.50713735449881
341, 50.72717786033627
342, 49.67957373837635
343, 44.084222067650444
344, 33.55093596674487
345, 17.3572562712543
346, 0.37682543489790987
347, -6.756521756616166
348, -3.6674345984147294
349, 8.485010406639958
350, 30.244371254936596
351, 48.50640117813782
352, 56.95705069554242
353, 58.110532342989245
354, 54.813444766457906
355, 46.8254747622459
356, 33.56369899927813
357, 16.551582952100034
358, 5.271693797709304
359, -0.27258290669487906
360, -0.06738185071935732
361, 5.982720922058434
362, 10.693945571489166
363, 8.574250580189982
364, 4.182662092202918
365, 4.178729728788312
366, 6.016645545200845
367, 2.0653515805242932
368, -6.828388736203124
369, -15.28894839113309
370, -22.60782921176815
371, -21.146613236034682
372, -7.960564356670147
373, 9.128002420881785
374, 25.52547789357868
375, 35.77345417506149
376, 33.187497841709956
377, 21.42190498560558
378, 11.345372615117412
379, 3.9931595743237267
380, 1.785467400338348
381, 4.389748427915038
382, 4.9660092844560495
383, 0.6634943363887942
384, -4.563145375202112
385, -8.604208175393978
386, -11.768526127957557
387, -14.23775418533296
388, -15.2736158541029
389, -12.263671402536602
390, -6.258174333603165
391, -4.968667368856586
392, -9.068757067445404
393, -12.804637943392663
394, -14.605353199816818
395, -12.888968438426673
396, -6.432064337418524
397, -0.2429183028798434
398, -0.5445393153504483
399, -4.381536878712723
400, -5.117070504486037
401, -3.69193624865693
402, -5.148257888048647
403, -9.416057416157855
404, -8.79757003697705
405, -1.4980209105033282
406, 3.616088936170854
407, 2.514472060195658
408, 4.2724493282958065
409, 17.427533248142936
410, 32.02098952133019
411, 31.04586632146311
412, 19.33951705545587
413, 15.929933167874879
414, 21.209651674114866
415, 31.72788124703402
416, 47.9230410977425
417, 72.89491791099681
418, 102.21112135750263
419, 125.35472052001933
420, 135.7867591260292
421, 143.95846180313947
422, 162.43428258947915
423, 184.4308146999865
424, 194.82173693902678
425, 193.65543504962898
426, 183.35964342807165
427, 165.45087465622055
428, 149.9360954310223
429, 138.79144882359742
430, 128.4307500574041
431, 117.43138792365335
432, 103.38530588055801
433, 84.60043144153133
434, 62.97779416312642
435, 41.043889849407606
436, 24.806331362136916
437, 17.128769931606257
438, 15.99363789336985
439, 15.210207320882546
440, 13.319661472143707
441, 3.115063669477422
442, -15.406091172299966
443, -25.688264763705774
444, -21.66896922935939
445, -8.993052021084623
446, 9.50973942005021
447, 29.8990187534464
448, 43.99772413439405
449, 48.48710564769226
450, 36.164396113447765
451, 13.157270514319862
452, 4.785563335704865
453, 10.812161444363483
454, 20.205475895267227
455, 29.414739200136864
456, 34.48947546553609
457, 34.13168245211
458, 28.86714015646885
459, 18.9909388620581
460, 8.36168376425212
461, 1.6127177127091272
462, -3.296918031196583
463, -9.215772344123252
464, -15.132294947039554
465, -16.886356436935785
466, -14.808156888349004
467, -10.919702260913255
468, -5.089142468904356
469, 3.652941969015046
470, 15.934028123715507
471, 24.195733389638917
472, 25.59901881488622
473, 24.951667021235153
474, 25.443360187278813
475, 20.50916214087738
476, 2.6161389810185938
477, -16.746000352225565
478, -17.9618679263167
479, -6.068480036560686
480, 3.150668596399555
481, 10.102505605086662
482, 19.123719500879815
483, 29.008593284987
484, 33.07356144440837
485, 30.203431118097797
486, 31.195051132363005
487, 40.18098234662375
488, 44.82056087120327
489, 37.26790388588961
490, 21.7179563331174
491, 2.616243202849546
492, -11.890191792926998
493, -9.575398154282993
494, 5.293526097713766
495, 21.21048894578962
496, 33.65716907910428
497, 28.486803124907055
498, 6.616910118998021
499, -12.547799825953007
500, -26.938924747298188
501, -34.79995534788304
502, -35.75437026485724
503, -24.79637558140439
504, 1.62848941147422
505, 25.185141425218717
506, 29.38777987252797
507, 32.57575157899737
508, 54.528919461048645
509, 80.95863650930823
510, 90.03914235524007
511, 88.31780786613763
512, 97.19243104747966
513, 125.74584835622409
514, 154.60266252746442
515, 182.2533554665606
516, 206.47713873724933
517, 226.19061141889506
518, 232.85589973375863
519, 224.27813448644702
520, 216.52799679432246
521, 217.2049040352731
522, 218.99489338950207
523, 216.64570982647183
524, 205.42985942734413
525, 180.0435934654197
526, 143.21680518446829
527, 99.6164848401022
528, 57.82215847815769
529, 45.078406875668406
530, 52.70505878760105
531, 44.71365412683099
532, 22.341819902496354
533, 11.604303279004853
534, 13.092652742627251
535, 8.349795757299034
536, -6.389555924057277
537, -13.783065858392547
538, -8.342183180510801
539, -3.380108212369123
540, -5.374052779401609
541, -4.791083984970101
542, 5.615500451926891
543, 17.332232945952455
544, 19.20669320782781
545, 15.136308351082334
546, 11.46703911766599
547, 7.184174708359933
548, 0.44793961732102616
549, -4.992531300270457
550, 5.203820296720551
551, 28.433985449277316
552, 41.55243288958536
553, 42.68162757007849
554, 39.031910019334646
555, 31.611349231407075
556, 16.163886197688953
557, -7.505333509270713
558, -20.828517656689655
559, -17.96536731807464
560, -12.205685140024798
561, -10.247121486491778
562, -7.028962649633286
563, 1.429860363881744
564, 10.476460485342614
565, 14.03645476323345
566, 13.38035344637683
567, 10.44173718097045
568, 6.876387289524246
569, 6.78338131198052
570, 10.844424160087328
571, 20.037818992962457
572, 29.87034194030275
573, 22.595760046150644
574, 1.2860023282091788
575, -8.090333005210596
576, -4.409781652660058
577, -0.6627188472739363
578, 1.444161527232609
579, 10.054878707735043
580, 25.971833322278144
581, 24.89860303514979
582, -1.333640320919585
583, -15.997357126331735
584, -2.3174077513076554
585, 16.69077274792471
586, 25.00806303376521
587, 28.833276976674824
588, 33.72950721516463
589, 32.27360183723522
590, 15.395506567193479
591, -3.973232124113565
592, -5.234659651374386
593, 3.9445037985879026
594, 7.931563642066067
595, 7.9260512221444515
596, 9.751718414520838
597, 11.711180364871325
598, 6.62379503619195
599, -3.1669549879989063
600, -4.2790262806784085
601, 2.7377838794545823
602, 5.517524817450976
603, 2.630739078699662
604, 3.004708730578386
605, 7.956597977879028
606, 9.783758405710614
607, 6.503328882938149
608, 0.2663005614267604
609, -7.8983900029052165
610, -12.504172793802354
611, -11.220223845361943
612, -7.652082607040029
613, -3.5559401550326584
614, 3.53518927026289
615, 15.802239044166527
616, 26.64325965993521
617, 30.37182729577762
618, 27.467692440615792
619, 18.48878868945485
620, 6.550014353200822
621, -3.1516596095698333
622, -8.201508839698363
623, -3.0735783393765814
624, 10.39633551807674
625, 28.100745760547397
626, 41.01508640804968
627, 28.21602322546005
628, -0.4163760368410294
629, -8.916524016930452
630, 0.3082339440643409
631, 10.944931546180669
632, 21.861703453007976
633, 29.940929542638514
634, 33.56260098833809
635, 24.684940599591755
636, 4.960666456291619
637, -3.1277190853998036
638, 2.3368850737806497
639, 5.963019172807435
640, 4.8419934627381735
641, 6.1655911531042875
642, 11.75240396450954
643, 14.152973883350569
644, 11.476570621050087
645, 14.629159642256127
646, 27.6219772084969
647, 41.556770354597575
648, 52.78981790474154
649, 54.852175036437075
650, 44.243963660513145
651, 26.06739656397167
652, 3.6409447420182914
653, -13.270077395136468
654, -19.34526311776426
655, -16.061514486144006
656, -3.8431332469290282
657, 8.906844021767938
658, 13.652946989635893
659, 15.696678297509607
660, 22.374772673148072
661, 28.878785835769122
662, 28.6389321497918
663, 22.351757903414182
664, 11.158245316751163
665, 0.9693989947218142
666, -0.8257743100957669
667, 4.1977512823359575
668, 13.471889397544146
669, 23.761727466217963
670, 29.019306616958602
671, 28.036298940279266
672, 18.373102887100686
673, 3.054966401818092
674, -9.018863847074499
675, -16.84519815811109
676, -15.994394177536378
677, -8.902623001262327
678, -4.4750885897683474
679, -2.406836283686971
680, -0.1622514038645022
681, 2.6001110455281378
682, 5.758196885441066
683, 11.0316676550583
684, 25.320303756624526
685, 44.866465139238244
686, 53.27958618551838
687, 49.67375514950072
688, 40.68079834066339
689, 28.003417994693336
690, 15.87400695721135
691, 7.604245934111532
692, 8.873231516150554
693, 19.10396360046525
694, 25.310138210891637
695, 25.280856545407914
696, 19.150895855532326
697, 8.380753653903412
698, 4.8584790496470305
699, 9.68747406118473
700, 16.218657839186562
701, 22.134852509649136
702, 29.52507555755983
703, 37.28693798306995
704, 30.523554427129966
705, 8.384847504968093
706, -0.4790718235344684
707, 8.313530005647408
708, 16.27897199983454
709, 18.245376682866663
710, 23.100671010768565
711, 31.851455496367635
712, 28.036513338436635
713, 8.637810736772735
714, -5.931519786025092
715, -11.36271949566435
716, -7.111016212271352
717, 6.723688400427818
718, 20.82463024142271
719, 31.022205927673895
720, 33.86369477082826
721, 28.723092919709416
722, 21.18630102226416
723, 13.643993848525497
724, 16.248617629630644
725, 30.699498272245364
726, 38.547789587041734
727, 35.08249117097148
728, 26.82225692662996
729, 15.875438839027993
730, 3.490318412934357
731, -8.86376523886429
732, -13.078798991710755
733, -7.696041695651729
734, -3.8870879608939504
735, -4.5128680818870635
736, -6.6701847160748
737, -9.553690173504037
738, -11.660797015571916
739, -12.472605392901642
740, -9.639468433277216
741, -2.6697817214353563
742, 4.196130990978418
743, 10.207150465594168
744, 13.814903760520792
745, 15.310784920041442
746, 20.241475863227606
747, 28.752558444142778
748, 29.81536721381508
749, 21.380221510067713
750, 8.205821478197322
751, -6.369075256822725
752, -12.457528568574162
753, -8.74933723725826
754, 1.4694572900889398
755, 17.01382864126208
756, 27.71062706430621
757, 31.68003547303306
758, 28.95085362737882
759, 20.26533081616617
760, 9.91561389691924
761, 0.22936508498969488
762, -6.3175893433108286
763, -8.432394975196985
764, 0.7666372292214874
765, 20.295634801047527
766, 37.10826394715605
767, 48.25116256756064
768, 48.050635300308386
769, 37.768113797112164
770, 24.516520228973604
771, 10.497624997942694
772, 1.9792756855940752
773, -2.104192756237353
774, -4.202901259514874
775, -3.954011005837856
776, 0.7074554715918566
777, 9.784168103173215
778, 22.681060658400384
779, 33.316877414772534
780, 30.138474485541337
781, 20.173195836491686
782, 18.824249744556255
783, 20.372776337511823
784, 13.478659620520375
785, 5.42945343354495
786, 9.011784766091296
787, 15.29054431332952
788, 9.819028551101837
789, 1.7055130356066002
790, 2.6368485311604672
791, 7.3060747811287
792, 10.30671133877695
793, 17.553557129755973
794, 33.167448200485524
795, 42.72451129003639
796, 34.87870564399327
797, 21.021913838583714
798, 9.005386086922044
799, 4.694177202610263
800, 10.3509263942924
801, 18.5883211575765
802, 24.270622506451218
803, 25.085839823954302
804, 20.26642772960622
805, 13.949657053131887
806, 7.692067633243823
807, 2.6529889684243244
808, -1.340641520004283
809, -2.525947350974093
810, -0.34943950429988035
811, 6.223913153873582
812, 15.275035678037966
813, 12.738484645422432
814, -0.4358399073889814
815, -5.465515535389386
816, -2.290650104812812
817, -0.34069557952170726
818, 1.4608726202059188
819, 10.603743229067732
820, 23.214660244110746
821, 26.23586204923231
822, 21.51697784005046
823, 15.725773436610325
824, 9.572266749817572
825, 3.871757924706799
826, -0.1323220985559601
827, -1.4705021861391288
828, -0.8538558498303246
829, 0.9867678795908432
830, 0.8628225935453884
831, -4.7625311811470965
832, -6.802263769829551
833, 2.387122559139243
834, 12.30417462686546
835, 15.273537782235508
836, 13.234591601607463
837, 7.376270464249501
838, 1.7191412407419193
839, -1.7421809780007607
840, -1.2537142702794881
841, 3.757317967234485
842, 11.999350978790062
843, 21.60515233113165
844, 24.97597461174246
845, 21.00732582402088
846, 12.175499084221883
847, 0.9622602247745817
848, -3.5936927173106596
849, -0.8081523741066121
850, 10.019290649419418
851, 24.743801443099983
852, 28.911875088295346
853, 24.159224159870973
854, 15.05730813741502
855, 1.983070018599392
856, -14.480397643364086
857, -21.967489308046424
858, -5.2181480797016775
859, 17.40508645511636
860, 29.52344141721187
861, 33.602118201059966
862, 31.15168670215826
863, 20.663651833158838
864, 2.767880009714645
865, 1.02263962685538
866, 21.287794617444888
867, 37.670794171664056
868, 43.07586770604121
869, 36.8630082520458
870, 20.62541988943758
871, 3.2529092495442455
872, -9.932762460778576
873, -6.21658661208312
874, 9.342929169391937
875, 19.478771787115875
876, 20.498335132954708
877, 9.003676603570966
878, -4.103821109637465
879, -4.936115220417378
880, 3.8284118482570193
881, 20.08991626372699
882, 37.51110777391841
883, 51.34761560432071
884, 49.89114945568963
885, 28.00500017977265
886, 10.202891363758681
887, 5.956212846993367
888, 1.2927838336036075
889, -6.668693816343875
890, -8.419768812604161
891, -4.247865160045876
892, -4.368306250981732
893, -7.329758184823731
894, -3.4930250403676837
895, 6.426215240781858
896, 18.707820582620116
897, 29.023248244943716
898, 31.382779987370668
899, 26.366448835380652
900, 14.82246512468646
901, 7.014802085127485
902, 11.598015801866495
903, 15.320443780167807
904, 11.578382422451796
905, 6.479010793735142
906, 2.7963038732486893
907, -2.1580359218369267
908, -7.754420899203069
909, -3.3632977266988746
910, 9.868707857888694
911, 18.131192409555297
912, 21.098683767391776
913, 25.544389878838956
914, 32.5137367191719
915, 43.23146278262357
916, 49.67551130567517
917, 41.19829790200947
918, 25.897059927144255
919, 10.774706419215363
920, -1.2582005039221258
921, -9.985790272222403
922, -8.999669051460842
923, 2.8997897008903237
924, 10.501001203225314
925, 12.810097120735918
926, 24.174347956929523
927, 41.59701855752155
928, 50.02858842102978
929, 50.26341838634198
930, 47.83179142323661
931, 44.32285449029132
932, 41.91048176368895
933, 39.68617867914418
934, 36.63415629307838
935, 29.138677435902537
936, 15.055072955566175
937, 1.0468163204868688
938, -10.741878918333896
939, -6.612508339728265
940, 13.303771647560097
941, 20.931614185004037
942, 15.155177543329046
943, 10.5716320173251
944, 6.6838211733220305
945, -0.5447057390520058
946, -4.58211145707628
947, 5.817680983931496
948, 13.621239206331666
949, 1.3074198598824296
950, -7.364022571908208
951, -0.07659863795379351
952, 12.27555375193333
953, 24.627214115463175
954, 30.345797915230833
955, 28.016636056495372
956, 18.219364390804003
957, 5.435634247611233
958, 3.516366152743103
959, 12.578992420128088
960, 32.40182578657641
961, 44.84813390758154
962, 30.843783985941627
963, 10.123860908925053
964, -3.0816445525179006
965, -10.868623142831893
966, -14.065309815794535
967, -10.377366841232288
968, -1.881661287937277
969, -3.9499051835618957
970, -13.034561561541523
971, -11.156486596493778
972, -2.968954194159778
973, 0.7027454391891297
974, 1.0454414200144129
975, -0.648328202628818
976, -0.5006314466049844
977, 4.073228494693922
978, 13.65298940499315
979, 25.743394310296935
980, 22.59656947962003
981, 4.8611458257291815
982, -6.171108335765894
983, -7.8802122347760815
984, 2.722385828030383
985, 18.94072451641523
986, 28.197282627565983
987, 33.31692210949677
988, 36.62269303441735
989, 29.609077436534335
990, 9.71120710982268
991, -2.6034063514230184
992, -3.1287929432401143
993, 6.916034863136247
994, 26.750022385927423
995, 50.52691003984273
996, 66.22904970593754
997, 52.22337756318984
998, 25.654686533025597
999, 4.868190677951588
1000, -2.059159684758015
1001, 7.432163541774571
1002, 19.657309523073764
1003, 27.690968287099622
1004, 22.248819970221575
1005, 6.7030794130614595
1006, -1.0440120213124828
1007, -3.9225398322514593
1008, -9.19471342727411
1009, -8.469064520748361
1010, 7.611397982689141
1011, 25.27684608665095
1012, 35.637132946958445
1013, 45.78081157173028
1014, 55.52806093430945
1015, 50.40411054044762
1016, 34.64604547492172
1017, 29.463293751736273
1018, 31.656936644162215
1019, 32.822519681193626
1020, 28.557701639575498
1021, 15.174317598857215
1022, 1.179173858910417
1023, -10.356440075719092
1024, -9.547991627532156
1025, 3.642487661186351
1026, 16.072264826559604
1027, 23.473723443947165
1028, 20.736884448401725
1029, 12.11467435204031
1030, 3.8677646421683676
1031, -0.5037838659359295
1032, 0.5851837502405033
1033, 5.209469294897644
1034, 12.706832162350565
1035, 19.963696120272743
1036, 25.32361851912674
1037, 24.782194156724472
1038, 16.352323029373565
1039, -2.969299979020434
1040, -15.518512138322421
1041, -6.77411404620716
1042, 3.096774904745871
1043, 5.5728009701174415
1044, 3.2021230806940366
1045, -1.8514281011284766
1046, -5.217729013767894
1047, -4.0624694959797125
1048, 7.4528115794259975
1049, 18.34137616541784
1050, 15.966431262064816
1051, 3.8993377389870147
1052, -13.794446028909533
1053, -19.65877507667301
1054, -13.514327694590065
1055, -16.086522053532008
1056, -24.543300667557105
1057, -25.917646221550058
1058, -25.463404968859322
1059, -29.694664001243837
1060, -30.996757446202537
1061, -25.94086429344543
1062, -24.925203424016217
1063, -28.840925404437257
1064, -28.14439741385013
1065, -19.508713790647562
1066, 2.545294678335722
1067, 30.845784497591467
1068, 57.71555905639843
1069, 102.99154212972735
1070, 178.9555880974949
1071, 278.5841472203838
1072, 379.08402174114417
1073, 476.037670006207
1074, 563.1853051071148
1075, 628.4092730781967
1076, 682.7259823453182
1077, 736.6617568523457
1078, 768.5207318450739
1079, 768.2151845810072
1080, 735.3740081338301
1081, 670.9796383874364
1082, 578.8555939216617
1083, 473.04207977739406
1084, 377.13219444304923
1085, 280.7232531404188
1086, 176.42000350190665
1087, 99.09248134629615
1088, 46.423672165162316
1089, 7.86339076600234
1090, -19.014815896993696
1091, -30.572480565260776
1092, -35.87233067985744
1093, -45.654919339875505
1094, -46.705720268051664
1095, -32.85509290213531
1096, -20.030962941482812
1097, -11.296469400452679
1098, -5.046211909371323
1099, -5.12172554518429
1100, -20.058097081172036
1101, -29.16637798808597
1102, -16.39436723784229
1103, -6.6747315484990395
1104, -6.86879668273923
1105, -5.402679139261181
1106, -3.2432791033111243
1107, -8.02367192455904
1108, -12.625411550146055
1109, -8.408426910688831
1110, -2.7046684691126757
1111, 0.9625428803333307
1112, 1.1838802769602808
1113, -1.3721149356701972
1114, -3.4262764661102665
1115, -2.574202939607403
1116, 4.737024343971825
1117, 14.993331324835708
1118, 24.215566194243365
1119, 23.35722568205574
1120, 12.251618784394395
1121, 0.8358114301458954
1122, -6.56224749556759
1123, -4.914253796782759
1124, 2.1808730429379466
1125, 11.671522674378139
1126, 11.4429601857928
1127, 0.9869798177514895
1128, -2.923677471215342
1129, -0.14643979420543474
1130, 6.070108436272221
1131, 16.668456944732952
1132, 30.353601571057425
1133, 28.661253769119412
1134, 11.051600296160814
1135, 11.744981960296627
1136, 27.239175478144716
1137, 37.406108106972624
1138, 43.67531270416703
1139, 47.76705361915265
1140, 45.433658303562424
1141, 37.4949879965111
1142, 37.30734527116556
1143, 41.3825033402527
1144, 37.24639277679262
1145, 27.663471901549656
1146, 15.989568940988192
1147, 11.456685260414815
1148, 14.863043310025205
1149, 16.69258654022542
1150, 14.923139780936253
1151, 7.83591035440395
1152, -1.9399309691011695
1153, -12.810754393713978
1154, -10.74853056824577
1155, 5.002082348142267
1156, 13.940137164366206
1157, 13.48198826248381
1158, 5.175597716643097
1159, -2.588515552993613
1160, -4.028611204505523
1161, -0.6870928773510059
1162, 4.238818224292572
1163, -1.7569098978260627
1164, -13.91438396080639
1165, -23.1256344386793
1166, -20.384152924564205
1167, -2.2153436627786505
1168, 7.673683334619
1169, 8.361973513416615
1170, 13.863168582628532
1171, 22.822285420701974
1172, 30.05206389524892
1173, 35.80866620479719
1174, 40.19906952838073
1175, 43.077483013380515
1176, 44.96791626914728
1177, 47.23155127697146
1178, 48.55250814227156
1179, 47.85617949054722
1180, 48.50373734332152
1181, 51.91956439477735
1182, 59.195617562043026
1183, 63.639258164126204
1184, 53.19002831815624
1185, 34.117960931366724
1186, 12.028225144916178
1187, 1.647241848423164
1188, 1.2379702406378783
1189, -1.8025122639328401
1190, -4.33948890411375
1191, -1.7907964548016935
1192, -1.0366600223633213
1193, -3.21981042290372
1194, 1.5079952489527386
1195, 9.194723139751204
1196, 7.618218442368288
1197, 6.522171312042246
1198, 11.756539369249822
1199, 8.873604653630537
1200, -1.6515097182282261
1201, -5.5972125606981535
1202, -4.547003830645281
1203, -1.200341088211644
1204, 5.914558195450809
1205, 16.149048903942457
1206, 18.911902881256992
1207, 17.20657925670048
1208, 19.73265444830622
1209, 22.057305282841753
1210, 21.303800352631242
1211, 19.455540233891043
1212, 15.343226245159713
1213, 4.129909162085369
1214, -3.9416982426250797
1215, 0.07696995182277533
1216, 3.97094100827735
1217, 4.591035780558741
1218, 6.3617795550144365
1219, 7.05370806720066
1220, 3.4328493824141333
1221, 6.995664137951735
1222, 19.25263828798279
1223, 15.096299894828007
1224, 1.4881462732400905
1225, 3.3084810246095913
1226, 1.4344332515115639
1227, -15.605085740284267
1228, -18.44089630769031
1229, -9.010865652689517
1230, -14.22169461698104
1231, -14.014445633637024
1232, 11.113127448647447
1233, 20.622909010267904
1234, 8.332895375670887
1235, 4.853708442431071
1236, 7.080506814399996
1237, 6.705896701047095
1238, 11.466986526767869
1239, 20.957815693717748
1240, 19.65627253724506
1241, 10.062013931378715
1242, 1.2728795995917608
1243, 4.535809748492284
1244, 23.920833312857212
1245, 42.071717031320986
1246, 54.23624969523553
1247, 56.782946549264125
1248, 50.71934732621912
1249, 37.536636746247495
1250, 23.308521309600565
1251, 10.24832511453269
1252, 1.5980470450535904
1253, -1.6929245485298452
1254, 1.3116527074303121
1255, 10.622247784938736
1256, 23.814888141560004
1257, 30.829333844463235
1258, 34.42076475409249
1259, 37.15270974698569
1260, 36.30112444240649
1261, 30.620091702257014
1262, 18.632112321919067
1263, 15.816672213565198
1264, 32.82013053208357
1265, 42.48664092977924
1266, 40.43982747218888
1267, 37.26422359908065
1268, 27.24598380804673
1269, 5.910256876767562
1270, 1.6694831719078138
1271, 12.732228223912443
1272, 6.713180377549179
1273, 2.55365341201923
1274, 20.718608651397517
1275, 33.50358510070646
1276, 37.67233599495603
1277, 51.28278153367319
1278, 50.54778401030535
1279, 13.807768386162934
1280, -5.388365426991186
1281, -2.667592058974151
1282, -9.260985109343437
1283, -13.155409178839818
1284, -1.8080041709540637
1285, 6.760065361555007
1286, 12.536503550068574
1287, 30.27138175190521
1288, 43.94306447169083
1289, 40.9826381388616
1290, 35.474912050734474
1291, 30.810666662192943
1292, 25.998721024985116
1293, 21.737908276629696
1294, 17.597606066095977
1295, 4.526151900158766
1296, -10.046399439478137
1297, -5.91743402271959
1298, 7.465616329814111
1299, 23.76057197650698
1300, 39.37113592360765
1301, 45.36254095659888
1302, 25.15949362249694
1303, 0.2773746301540996
1304, -15.264896157337716
1305, -13.894376144109174
1306, -4.326594504177137
1307, -2.3784078880867128
1308, 4.532287105831529
1309, 17.76625081727252
1310, 13.481117977830309
1311, 2.305026772353358
1312, 1.8240744339291268
1313, 5.36124084370249
1314, 7.278796796580991
1315, -3.0382245451960443
1316, -13.784395401568872
1317, -13.602171316622389
1318, -6.287767973192786
1319, 9.24284437243341
1320, 37.989458567043584
1321, 44.13329545331908
1322, 11.058828364633428
1323, 0.09763596270749986
1324, 10.734593625695652
1325, 22.025793443278417
1326, 32.18825332862025
1327, 38.887257029733064
1328, 31.089145933089185
1329, 14.830434626409897
1330, 0.4447067105647875
1331, -8.90454967537471
1332, -12.264404037844088
1333, -7.3313617178082495
1334, 2.0212678874154335
1335, 11.416784676822772
1336, 9.138814328808621
1337, -0.46599695615350356
1338, -1.5670153947648942
1339, 9.426264408356019
1340, 31.095677988106218
1341, 39.33858715007045
1342, 29.665180355304074
1343, 2.077898408962028
1344, -16.762372096142826
1345, -18.003811409369064
1346, 1.586347290793583
1347, 22.13656693959456
1348, 25.684290240136306
1349, 21.586866050607114
1350, 14.072155363022375
1351, 7.596696988681288
1352, 7.882952925470363
1353, 15.05196876284117
1354, 17.408617359837535
1355, 17.14471752499503
1356, 17.88966093779709
1357, 12.008440285697816
1358, 1.9283197815971107
1359, 0.3191275333751946
1360, 7.280226316660446
1361, 21.052218299310425
1362, 27.97309783884384
1363, 26.149955863737887
1364, 16.276069218183693
1365, 4.5187074727523395
1366, -3.276486457341889
1367, 1.9588758606346346
1368, 14.315576709079323
1369, 26.872085655515093
1370, 30.805811637838815
1371, 23.06588808776678
1372, 2.3582390912924893
1373, -10.325152591112328
1374, -9.67413239889811
1375, -1.4998837471121078
1376, 6.149421838129456
1377, 8.639434656881804
1378, 16.74512014776792
1379, 26.586578876528165
1380, 29.218840910675226
1381, 21.832254563177685
1382, 6.2880365140335925
1383, -6.8967970443427475
1384, -8.567135680354113
1385, 5.38578809447381
1386, 12.90685357915845
1387, 11.618364100517283
1388, 6.435703651884069
1389, 9.950077545655404
1390, 21.51745493313547
1391, 23.716116400856208
1392, 27.160517945391803
1393, 37.06212946311598
1394, 35.56781394673635
1395, 28.13567818761976
1396, 25.20106541101586
1397, 11.53259134322252
1398, -7.317028180183115
1399, -10.104360474318128
1400, -5.31806590914357
1401, 2.479551541645378
1402, 15.298581191674202
1403, 32.76851252591996
1404, 49.44927219036663
1405, 47.08125193386195
1406, 34.81483377310269
1407, 38.08184235430281
1408, 41.58003512513187
1409, 40.049918052768135
1410, 38.449069652221624
1411, 25.648375984821087
1412, -1.0787329571498958
1413, -7.701933160992667
1414, 2.893859517069359
1415, 19.511672461959733
1416, 19.67728558593626
1417, 8.738573593426281
1418, 13.28007919842048
1419, 13.406333847537098
1420, 3.773232957525579
1421, 0.5624007644987614
1422, -0.15453555943395259
1423, -0.37661040359034814
1424, 13.367785400803314
1425, 28.46879792404752
1426, 25.00909316946263
1427, 9.619829177699557
1428, -6.697028664871141
1429, -5.334741810000196
1430, -0.7327743110331539
1431, 2.6492616905989053
1432, 12.290459197134169
1433, 15.951885228458195
1434, 7.210960026683551
1435, 0.6585084641678804
1436, -3.6106689862563144
1437, -7.906629217673981
1438, -6.428675464145726
1439, 0.8206876727103918
1440, 10.880991505245674
1441, 11.637402063123318
1442, 3.2677980643206865
1443, -1.5098086581342613
1444, -3.350755746791492
1445, -1.4725416908299849
1446, 10.016173824455564
1447, 12.29190397114553
1448, -4.21650263993115
1449, -1.467395161850618
1450, 10.430366768478507
1451, 12.14243764144112
1452, 15.598928606186291
1453, 17.155621932337
1454, 6.912770462649405
1455, 16.78111350775771
1456, 39.90982256424013
1457, 33.88059567052596
1458, 22.363333524940572
1459, 16.03021732613024
1460, 8.065482319482271
1461, 2.9093418106376703
1462, 1.0147007242435393
1463, -6.890798495332092
1464, -10.040326168347747
1465, 1.3212167055917234
1466, 14.960255801634048
1467, 22.039331648369625
1468, 15.283434605591083
1469, 3.0218346753117657
1470, -5.954935466980714
1471, -1.8483875593137782
1472, 9.886409781375733
1473, 25.518788516470522
1474, 36.926972713597024
1475, 29.075457793038822
1476, 5.934587554650989
1477, -2.1024633690371957
1478, 0.6710512274989924
1479, 11.935924800215616
1480, 33.922465017425566
1481, 46.287416492864395
1482, 39.4889047280185
1483, 30.81850272944621
1484, 21.798596441334666
1485, 13.155640979449345
1486, 13.722421644521091
1487, 13.003273147415712
1488, 1.8804668245634275
1489, -3.3153744582655236
1490, -1.6764342564019898
1491, 4.1239163966347405
1492, 10.927005196806931
1493, 16.114392504544412
1494, 17.802156977464165
1495, 18.126694619154932
1496, 13.677001939868205
1497, -2.024298090223965
1498, -13.06620746319959
1499, -13.598546368212283
1500, -1.013195906353758
1501, 16.05757795859745
1502, 27.88988453762886
1503, 20.860813457406948
1504, 20.17564590207121
1505, 29.953276440051468
1506, 30.610600359774708
1507, 25.60879095850214
1508, 16.67622489209316
1509, 2.6113162275878494
1510, -1.6693880743796399
1511, 4.185395629765026
1512, -2.6144466284833925
1513, -8.375781224713364
1514, -6.603666420681748
1515, -5.464956066661671
1516, 2.2337512900166985
1517, 16.272133276470868
1518, 14.227178259257244
1519, 10.647640196804332
1520, 12.919686126982242
1521, 6.802086174619035
1522, 8.218131734611688
1523, 22.92294947269511
1524, 25.937912948108078
1525, 16.58710573157282
1526, -0.4092145500201241
1527, -10.891406528937068
1528, -4.964000890674242
1529, 17.29306060328804
1530, 25.251402669554864
1531, 18.845898204214336
1532, 3.4249875355847053
1533, -8.361417890327402
1534, -5.551055744412224
1535, 11.728121962995374
1536, 11.633909137739465
1537, 11.30730867415059
1538, 18.040885115216497
1539, 5.7150767143609755
1540, -2.614444357466482
1541, 0.8900423320656046
1542, -11.487149963995762
1543, -9.892636028303059
1544, 12.57437379013163
1545, 8.676056957016499
1546, 0.4523218043061661
1547, 0.31371545711726867
1548, 0.30495445981114244
1549, 9.164310683393069
1550, 25.17927294968399
1551, 25.701243118324555
1552, 21.68261756630409
1553, 20.10773586856135
1554, 23.618415901579283
1555, 23.29792986490338
1556, 13.225107802501725
1557, -10.310609788901957
1558, -25.879795385957777
1559, -28.459323533207225
1560, -22.73638794246517
1561, -16.66169534473147
1562, -15.090372661335778
1563, -20.74926128613879
1564, -11.760832157077402
1565, 3.3338695101670055
1566, 2.594009518951225
1567, -10.714138267765975
1568, -27.12748081110749
1569, -33.90532447095029
1570, -19.377190382740082
1571, 6.991775738148135
1572, 35.13902216529641
1573, 72.87203568083214
1574, 122.73863956058676
1575, 186.33898777902778
1576, 243.8511856367354
1577, 304.062659570558
1578, 364.77784839364585
1579, 397.40186478153055
1580, 430.94108763072063
1581, 471.2622669644902
1582, 490.90427094443885
1583, 506.5452819444272
1584, 507.4531170434334
1585, 457.8134191518111
1586, 394.6569652471503
1587, 320.83224759043924
1588, 224.46137018412992
1589, 133.13037277994772
1590, 70.88269168009992
1591, 34.75287534801191
1592, 10.049039812888168
1593, -5.3834795746233794
1594, -14.623664132295744
1595, -33.972162812240185
1596, -41.65522014397493
1597, -30.13833770013207
1598, -23.762951381434505
1599, -15.381269085293297
1600, -4.0954664396304
1601, 2.314764017606649
1602, 5.917468337300761
1603, 3.3868770029939697
1604, -9.84434751110075
1605, -24.21829615256047
1606, -22.885681417664955
1607, 4.707593179118703
1608, 18.362958487508877
1609, 23.166843113706364
1610, 25.854868986600195
1611, 17.00084216336063
1612, 8.680835700773514
1613, 4.527014085881547
1614, -4.584263184582824
1615, 1.1180565850584117
1616, 22.45509237803185
1617, 44.18275607276337
1618, 40.62888831026498
1619, 20.08971181362358
1620, 0.006927636804448412
1621, -9.792861014490882
1622, -7.2118056449915
1623, 5.3374661515915705
1624, 16.377285925194883
1625, 18.621277835046612
1626, 12.414472036767165
1627, 4.145412599840938
1628, -1.6238692637373333
1629, 0.8732554502644234
1630, 14.706943632226285
1631, 15.54402685533455
1632, 7.4507696381319874
1633, -1.213486120498601
1634, -2.9754941730914197
1635, 5.449378214136004
1636, 19.030727388763808
1637, 21.725305360995435
1638, 14.617858731040997
1639, 3.513444362455175
1640, -3.3094938127628666
1641, -0.7592589886191945
1642, -0.7282275855691296
1643, -7.904072601663302
1644, -7.304947852738906
1645, -0.7738751905437766
1646, 10.260352356231351
1647, 21.967284333603857
1648, 11.729988545358083
1649, -3.7429768933627656
1650, -6.287179165078442