a,b
320, -19.25814929724129
321, -6.120548952748322
322, 0.5013942381438028
323, -1.077626835673982
324, -5.324235134846276
325, -2.672770209005648
326, 5.639015098304299
327, 13.93244436886107
328, 22.922332280417322
329, 36.357771266842974
330, 55.22295785590268
331, 64.76448903022629
332, 56.88677345178803
333, 41.33214828446398
334, 30.429817623557028
335, 27.989676751534716
336, 35.767210709980645
337, 49.474312472779275
338, 59.17613442739457
339, 62.85553452163276
340, 54.64268887171693
341, 32.331609789533104
342, 10.044842168346804
343, 0.4089008425225984
344, 1.4931715583470577
345, 11.618777961003616
346, 28.87907983833611
347, 40.84033158102193
348, 46.6860451662551
349, 49.447809174086615
350, 49.84441988210983
351, 46.875638707764665
352, 40.02609254499657
353, 31.25574550521378
354, 22.78367457819877
355, 15.113773987587592
356, 10.9611229201073
357, 9.573709587134545
358, 8.845254954071606
359, 7.395936789665029
360, 3.2931584652124
361, -3.646235982764665
362, -7.803819186304281
363, -5.629823703772672
364, 0.6948471902451274
365, 8.519482090656311
366, 14.91684318397165
367, 11.959510995766323
368, 0.7795604856100908
369, -9.144186574767446
370, -16.707615459263252
371, -13.828256705203785
372, 2.680242892300157
373, 17.952711390854347
374, 20.335168752455502
375, 13.258501005153448
376, 1.7679709060075766
377, -10.863940404568893
378, -16.974912519838654
379, -15.908021978116267
380, -3.3549495276774906
381, 21.46393333407559
382, 40.21917425099673
383, 46.53427755049506
384, 46.63354207347675
385, 44.731397402666516
386, 40.29909364648938
387, 32.58965772299234
388, 22.065325299305186
389, 10.015632566716704
390, -1.9224707321682217
391, -11.857387712525451
392, -19.942796000537783
393, -22.078116575967215
394, -17.075442976652084
395, -12.42037890820393
396, -12.410033802195358
397, -14.610260435537384
398, -16.298095276314598
399, -16.538063288023295
400, -12.784389175798424
401, -5.39318037785506
402, 2.617225455195694
403, 11.297827171660174
404, 17.514532566303387
405, 20.476863580093777
406, 18.05181173069286
407, 9.233540572750826
408, 3.533832114078905
409, 8.200719631674474
410, 17.87087003228953
411, 23.107510182339865
412, 27.20178789731108
413, 40.387301916293836
414, 63.17687557091358
415, 81.35237921220505
416, 93.68479282975113
417, 109.19602680511161
418, 130.7627257466538
419, 144.3901485235574
420, 141.37699234893898
421, 132.6881974866128
422, 131.5058065090534
423, 137.35367979615876
424, 149.11342104064624
425, 162.7762146779487
426, 162.32987296692227
427, 147.10796119750012
428, 125.22926565074977
429, 98.79396246194301
430, 74.87420041614587
431, 56.24244083252506
432, 48.856924043760046
433, 52.211353702099586
434, 52.8156024154905
435, 39.23484325611389
436, 20.083326918238527
437, 17.960969154049963
438, 28.761715543118953
439, 30.55874055930417
440, 21.590110612642093
441, 5.817452950146617
442, -14.598165155584866
443, -27.67913520775346
444, -29.27871916733511
445, -17.80222587290882
446, 9.096466527370467
447, 35.370664413007944
448, 36.7337270545504
449, 22.503021613758392
450, 13.183665222289164
451, 12.009688090003692
452, 23.359424991289416
453, 43.592176059474696
454, 53.06771384479089
455, 48.49469188920102
456, 36.07242482469974
457, 18.04479878055372
458, 4.156926836859384
459, 0.2930808133105529
460, 1.5402430539579655
461, 3.569310041331846
462, 2.473086249505286
463, -8.95046119165454
464, -23.854862021928966
465, -20.300634275005905
466, -1.5903667985203356
467, 8.890686717632889
468, 8.727261035129231
469, 5.479683600402495
470, 1.0540579128501122
471, -2.6318198729677533
472, -5.177832919212051
473, -2.718159003308756
474, 7.72733598596642
475, 13.364797966554761
476, -0.7981856073784002
477, -20.729299334686402
478, -21.32026917881649
479, -8.193446566830062
480, 0.5442387536104434
481, 4.814710385021499
482, 6.8543376105853895
483, 6.957838861372693
484, 4.823097751795103
485, 1.2576929883980483
486, 4.1360895208745205
487, 16.907409300757536
488, 30.616804199478793
489, 39.83419231552307
490, 40.26032000154191
491, 27.339122806207342
492, 12.243479727823797
493, 15.587345608668329
494, 30.28178336936344
495, 33.48504702080754
496, 25.152917481746954
497, 10.395207093176396
498, -8.146902045583374
499, -24.980160384669944
500, -39.58885047162221
501, -43.29900711917071
502, -33.533731305496985
503, -19.530362061535925
504, -4.971344165697701
505, 5.826261239964879
506, 9.44992361648383
507, 12.40183221159441
508, 22.73538315780297
509, 38.08347183227306
510, 53.23790585507595
511, 72.70207555456363
512, 107.93100024903197
513, 150.05940180948164
514, 188.72185996600274
515, 222.2802949901279
516, 248.2188954403773
517, 265.54944277068535
518, 267.8619758951272
519, 253.64175382020494
520, 239.13562036433177
521, 232.0534497987319
522, 229.11794622591697
523, 227.9756394016067
524, 225.23715940932107
525, 217.0999912828911
526, 201.37319774751995
527, 174.32239691724953
528, 140.47281750632555
529, 111.40157796671247
530, 85.79117279348611
531, 56.633940488868575
532, 30.746825854143026
533, 15.772990364424913
534, 10.694496710139902
535, 4.869974104859466
536, -4.189605127337018
537, -8.987236168186428
538, -7.227706133319771
539, -5.162977372056957
540, -5.807329269254296
541, -2.2226070789092773
542, 11.122383470762543
543, 23.348116974152617
544, 22.148847789137108
545, 12.180034977492141
546, 2.239582855236222
547, -3.9845293682392366
548, 3.4946471425291747
549, 23.574239683382075
550, 50.75869132280877
551, 78.03677439990042
552, 86.21132068543739
553, 74.48702209939438
554, 54.571720584628565
555, 29.500317868950333
556, 7.833433834197422
557, -7.211821043654709
558, -15.922548631477184
559, -18.767285068413912
560, -19.011482009423162
561, -18.28078282685692
562, -16.357421232758497
563, -12.939688864044001
564, -8.697176655656222
565, -4.296534117846022
566, -0.8710345240524475
567, -0.46896528994329856
568, 3.1413551327505047
569, 23.28669420917231
570, 51.56608740107549
571, 63.91036408571017
572, 60.69353125647558
573, 49.02289486839527
574, 30.56813410194991
575, 10.475143545480023
576, -7.6507668451076825
577, -11.942969525618537
578, -1.709380149671233
579, 4.417090555636605
580, 1.9529619625272971
581, -0.6238447650166563
582, -0.33208199753426015
583, 0.6871233230986036
584, 1.4771437495492137
585, 5.154396990532405
586, 14.10486337474049
587, 19.143581793713565
588, 12.490145712461526
589, 1.8155888825567672
590, -3.325501318861825
591, -3.3556091749906045
592, 1.8342723827636291
593, 10.168313748177752
594, 15.973732467394257
595, 19.58969786038142
596, 22.429199822826376
597, 22.403285627196965
598, 11.835370224302096
599, -5.844072146468534
600, -12.312737873918195
601, -7.494779366301373
602, -0.8507424729396007
603, 7.087111597184958
604, 21.08405113576191
605, 40.19213222129383
606, 51.499069258345116
607, 51.40223239106308
608, 41.19168671790703
609, 21.819392011464515
610, 6.858197176828071
611, 2.9786473581680184
612, 0.21525460260818363
613, -7.114189048332264
614, -12.095355944012226
615, -9.746676503252274
616, -5.157423758578261
617, -2.7137752512371662
618, 1.1764207953283403
619, 10.795460924245162
620, 18.83169913662823
621, 14.785486417277752
622, 5.931460492181031
623, 6.135167954409553
624, 13.024924887808993
625, 20.11389154830249
626, 24.606599455810283
627, 19.560878712492013
628, 7.717526402182557
629, 0.041572606736735906
630, -2.3914603167686437
631, 4.356503586360304
632, 17.732338842401077
633, 19.5809401167935
634, 9.385937292755443
635, -1.9846916313827023
636, -11.193901613489288
637, -6.3267487510183855
638, 13.33634763275495
639, 26.499631724677783
640, 28.23880492286935
641, 23.56739007271608
642, 14.559254361596686
643, 12.325684639599785
644, 19.744469094714987
645, 30.961305278692635
646, 43.71059736969255
647, 45.669531718824146
648, 31.27832192609094
649, 12.770229260740962
650, -1.7473850709347971
651, -5.436386664188831
652, 6.578417621582048
653, 22.250670406801873
654, 31.037353149076807
655, 38.05663977512995
656, 47.76531879434424
657, 49.65798609539161
658, 33.0305478076707
659, 11.680954418183319
660, 3.1257021658511803
661, -2.524894144024074
662, -18.185811600701527
663, -29.8550584422228
664, -14.403470619478867
665, 14.466279253654648
666, 32.326957755324656
667, 40.874726050083154
668, 47.33839697406347
669, 52.14731050774026
670, 55.81968783227603
671, 57.4405389488129
672, 54.70631042766399
673, 45.105780402594064
674, 22.054921389513765
675, -5.315991963960187
676, -17.63289272883594
677, -14.137108396130316
678, 7.133410204823122
679, 40.84452772901113
680, 58.373026095887326
681, 57.08581488825439
682, 36.78933179291653
683, 4.200424088140608
684, -10.562296835357301
685, -8.152243451036156
686, -1.2318326686863657
687, 9.600556483619584
688, 27.534187606851447
689, 52.78531099440261
690, 71.90279632340389
691, 82.723808738564
692, 82.32571258809003
693, 71.68369948329382
694, 60.620418423974115
695, 51.40480572443903
696, 47.32696742742155
697, 48.27673206829422
698, 48.4037042808568
699, 45.25430022246928
700, 28.71884472476995
701, 0.27527794275465567
702, -7.249787766680129
703, 9.823397890974775
704, 22.830996047452572
705, 23.509250263186914
706, 13.586937966286314
707, -3.30413189324463
708, -9.732856826139141
709, -1.5593704835755489
710, 18.732080675445104
711, 50.69710613322695
712, 74.53969574360508
713, 84.29592813372255
714, 69.42402836450674
715, 30.24280494089635
716, 8.23803051316645
717, 14.153863007005384
718, 18.527017257216357
719, 12.009858837990578
720, 10.370047202319256
721, 16.569578292794176
722, 12.32355607621048
723, -5.618654962639994
724, -10.73298481799975
725, 2.8144072696004514
726, 9.615305705127867
727, 2.221262967836992
728, -4.493377850881188
729, -6.519553835945771
730, -2.0026881727817454
731, 9.201198012083296
732, 15.403884643688798
733, 13.411444183544518
734, 8.228773314094724
735, 1.5790662677836735
736, -3.6012854453001637
737, -6.855546428204434
738, -6.619757662229858
739, -2.5320076483794764
740, 3.5909799389983164
741, 11.392439540573832
742, 16.786159212639177
743, 19.26176938874869
744, 23.746819099852473
745, 29.499289580150617
746, 17.343132761318884
747, -13.369474636042469
748, -27.144378770480216
749, -19.47898046615046
750, -13.544768665280571
751, -12.512559752321067
752, -3.454284736898444
753, 14.04580221557353
754, 16.702982456255995
755, 3.881743675950929
756, 3.9173416891408124
757, 18.82913502817064
758, 27.831289193972225
759, 27.84937396596888
760, 21.74773523760814
761, 11.01407441918218
762, 2.2486680564943526
763, -2.4596071377391127
764, 7.023447132507499
765, 28.062882960127354
766, 37.23833120010568
767, 34.849554425136375
768, 33.629398539907925
769, 35.37905737379788
770, 41.652505263281455
771, 48.75294566335924
772, 43.434232109731965
773, 27.716648510241612
774, 11.40443619787493
775, -1.270344794099401
776, -4.830016222475933
777, -0.1488588057236484
778, 10.871779198561853
779, 22.447903392374428
780, 17.940338637568857
781, 7.882052580644995
782, 16.005005454190723
783, 29.643034173674096
784, 25.743660981107496
785, 13.675796980576706
786, 9.475966165307
787, 9.299179657285094
788, 5.947487255784836
789, 5.52483317817223
790, 16.10702262274117
791, 25.622800206600914
792, 21.597832501757694
793, 15.29361543176492
794, 17.116189333721195
795, 20.5975003042131
796, 20.593731008187206
797, 15.834910271847548
798, 5.577894444344565
799, -2.302516044969707
800, -4.389487186405859
801, -4.009268488353882
802, -2.5564563022426228
803, 3.5422969040173484
804, 15.475278647667437
805, 16.744114476759933
806, 3.2140157375488343
807, -0.29796492700643284
808, 11.630168048114683
809, 20.339786708251268
810, 21.297824084624153
811, 29.97531443277694
812, 46.15155965938084
813, 45.82264122555716
814, 29.425161923106316
815, 22.74670482845795
816, 24.56467156996223
817, 12.782913781903517
818, -5.48503542616254
819, -1.6515690936266765
820, 17.119317097192834
821, 20.35325136249685
822, 13.126222604759278
823, 12.889783762248953
824, 14.00679120111181
825, 3.5004107803852094
826, -7.418342648594262
827, -1.3706710598089558
828, 10.127549139652729
829, 10.768261440878632
830, 6.467519339023966
831, 3.5396511096178074
832, 3.7967493656424267
833, 8.401573051391097
834, 10.76073624462606
835, 6.882874125998569
836, 0.04861580133638199
837, -7.739154449102898
838, -10.762959788634362
839, -6.606762839733165
840, 5.194843449165091
841, 24.393152724215724
842, 35.63961728718823
843, 35.87378806015022
844, 31.278315137387835
845, 24.883844009464156
846, 26.563439607605687
847, 34.35992405966772
848, 33.431584514804854
849, 24.5792991428425
850, 15.973822253822618
851, 8.892931897627932
852, 5.852423403297507
853, 7.381605145214962
854, 15.123591587375813
855, 18.76578586279993
856, 3.6867610137760494
857, -12.285318493365594
858, -10.595649708916426
859, -0.5983750625882749
860, 10.557007973298823
861, 15.39030819736763
862, 9.370459880777162
863, -0.050854040603553585
864, -8.599457400307074
865, -4.802725793905665
866, 14.058790827936718
867, 25.5810811046249
868, 24.14447182359345
869, 14.11191687001974
870, -0.4393640755542947
871, -3.001844253695708
872, 4.44300788815417
873, 7.285907123171455
874, 4.280830815126137
875, -2.2836337688804633
876, -6.997442015601337
877, 1.9082238925675483
878, 16.599712982908386
879, 23.206307537142493
880, 22.235062998731337
881, 14.400262198890232
882, 4.582616347236581
883, -2.917582599204252
884, -1.4336342033475376
885, 12.304911425078899
886, 20.233955207603685
887, 16.50301279692485
888, 16.047265488620724
889, 21.280577769219235
890, 19.039786517532775
891, 8.842767788023593
892, 2.086826800989911
893, -1.785954986435172
894, -7.613063404851346
895, -10.90913706576066
896, 1.2617950474768804
897, 22.05685743581489
898, 36.40933352160209
899, 41.81144343833421
900, 35.591551150225314
901, 20.8873711330034
902, 0.6047851422999884
903, -6.376142936718679
904, 8.466609450888427
905, 24.280122585578283
906, 31.654433017607516
907, 30.87053354086038
908, 22.807997934767627
909, 12.636826569842015
910, 2.545583237990286
911, -1.8531163425777777
912, -1.9846385552073116
913, -2.416957031214224
914, -2.637099179143661
915, -1.014666658801616
916, 1.69396822582803
917, 4.486404934738857
918, 8.054904930107114
919, 12.224603812110217
920, 12.553906141048174
921, 7.09950796690282
922, 7.398007026908999
923, 16.330348296895863
924, 20.67590477658632
925, 18.821348336227857
926, 19.874860514961256
927, 24.177056678247936
928, 27.448919933800425
929, 29.217980264999824
930, 29.326063235532274
931, 28.30745013149317
932, 27.04729520894125
933, 23.514026603394996
934, 15.686644884058296
935, 14.744917808095124
936, 26.192956079611577
937, 32.3959005413808
938, 27.798178269022173
939, 26.74199090476668
940, 30.68275409879061
941, 24.18271819432084
942, 8.99924510341043
943, 2.8734488585887448
944, 3.1952045126809026
945, 1.0889924453185813
946, -0.17838573989592987
947, 5.321856251076497
948, 6.637346958905255
949, -6.4193116385340545
950, -15.24878324725978
951, -10.27179294978123
952, -5.3567971958118505
953, -5.016678574537764
954, -6.467737681696235
955, -8.320875770784369
956, -6.324761442762792
957, 0.32121375795941276
958, 12.285038109485868
959, 29.01424332814986
960, 45.982370355148305
961, 50.24861709651577
962, 27.37071411967645
963, 4.714577788257884
964, 0.6139597537212467
965, 3.3854662824651314
966, 9.071382881865247
967, 22.134560254881762
968, 38.46848321653215
969, 36.24170589584992
970, 20.485262970053554
971, 16.552560647054634
972, 17.4904952086099
973, 6.812591651722869
974, -5.792293332215195
975, -11.207475045383035
976, -11.561638477957331
977, -7.977312510236516
978, -1.5699016809098794
979, 6.292364532981992
980, 3.7038451269368124
981, -7.565993038362649
982, -8.149201741725392
983, 0.11896935998538538
984, 6.947608862923971
985, 9.623149992293293
986, 4.8751515457342975
987, 0.5114502134251779
988, 2.553049632444072
989, 14.473659690635486
990, 35.33327544427584
991, 37.90600289067788
992, 19.026751634384254
993, 5.90954285336602
994, 1.761226107305447
995, 0.5376621487057491
996, 1.08979176597677
997, 2.3566821595391048
998, 0.7443551837368432
999, -7.438832092157554
1000, -8.082901139190653
1001, 6.1373527740674945
1002, 21.773446395542578
1003, 31.99585094380018
1004, 27.791223239294595
1005, 12.09436467621481
1006, 0.4698129373341544
1007, -4.030174509947756
1008, 1.4384452358422095
1009, 7.009782232397356
1010, 2.480029762594313
1011, 2.652876236219072
1012, 15.291572223439289
1013, 30.371651946266866
1014, 42.97665473902907
1015, 54.05974920219296
1016, 61.324556706046224
1017, 56.94604042451965
1018, 45.99696841357445
1019, 38.418142013811575
1020, 28.242324584510243
1021, 10.19248006691896
1022, -2.2747939548589784
1023, -4.969874368464843
1024, -4.73006653853281
1025, -3.5093383166140484
1026, -2.32983351777375
1027, -0.7663044370788157
1028, 2.5237745807885403
1029, 9.413842828295401
1030, 21.596187722015657
1031, 25.796988917413273
1032, 13.69621258287225
1033, 1.6708781565971549
1034, -3.6067049557923383
1035, 0.44450411818434077
1036, 11.488714744078152
1037, 17.94156837588298
1038, 17.415788667796278
1039, 7.337137783995786
1040, -4.85095330930335
1041, -13.821282813457856
1042, -9.697807486904821
1043, 10.65111507188385
1044, 27.98381910005355
1045, 35.77906585028313
1046, 32.778725845947974
1047, 23.134576570974787
1048, 16.212595220147705
1049, 11.368495947059273
1050, 7.4231009318009455
1051, 0.13928628978010238
1052, -13.086754971217943
1053, -24.8802043240521
1054, -32.948447077153105
1055, -32.96996465355596
1056, -28.127026593375376
1057, -27.026329118634294
1058, -25.381837018108854
1059, -17.78000031269903
1060, -9.854290450296503
1061, -4.667059168067681
1062, -4.689332312853821
1063, -10.844310847390716
1064, -24.114109643837764
1065, -35.920458956075436
1066, -24.133791378624665
1067, 2.6200889711485615
1068, 35.129873578358
1069, 92.60697733967436
1070, 185.985842543736
1071, 290.04394182320266
1072, 380.64780666167235
1073, 473.2604730965659
1074, 560.1375649558322
1075, 621.1774171876655
1076, 662.3192137725878
1077, 689.8088547417315
1078, 696.069127423069
1079, 678.0268385172808
1080, 639.2559218715237
1081, 584.4503673330901
1082, 527.618852963295
1083, 461.24566763452776
1084, 370.2596696443288
1085, 270.5137975677235
1086, 174.4958543838775
1087, 99.85627084969019
1088, 41.41623651503642
1089, 6.5209273618143015
1090, -9.81079107118967
1091, -19.212342699423516
1092, -24.87863824259921
1093, -29.447857894771914
1094, -29.77552895276176
1095, -24.750559821175557
1096, -22.838433132291357
1097, -25.44233919996259
1098, -29.75951959004442
1099, -35.05059153461525
1100, -40.227291535243694
1101, -35.254599943582434
1102, -12.100109632782278
1103, 11.156891111073946
1104, 28.66521972926921
1105, 36.0352731672474
1106, 34.99812638352341
1107, 31.454628660864728
1108, 25.392849942826615
1109, 16.38180842827478
1110, 2.199405156685316
1111, -15.242055765193982
1112, -14.337844567501179
1113, 3.422618329134366
1114, 16.75884753549053
1115, 23.032328498134575
1116, 21.703392940324647
1117, 18.816600520876364
1118, 18.548130117914297
1119, 24.869301390903274
1120, 34.39537694286946
1121, 28.325539294308783
1122, 11.444654567560974
1123, -2.45208216701576
1124, -5.602254250369242
1125, 6.923602376808049
1126, 14.64635030152067
1127, 13.01923550441461
1128, 18.24996048981029
1129, 24.30412820790434
1130, 14.075075384442243
1131, 1.3628303881250758
1132, -1.7005061214290436
1133, -0.7117959082702328
1134, 3.5562736082965785
1135, 17.184430047994283
1136, 39.007857085211526
1137, 59.77268639118438
1138, 72.72216164104293
1139, 72.49524153732591
1140, 69.26195591196756
1141, 65.6929080906375
1142, 55.275218421444606
1143, 41.9016131868907
1144, 36.599809555325464
1145, 26.601389019720955
1146, 1.7087781805807936
1147, -6.29369898142113
1148, 7.965448876799201
1149, 16.481437396683305
1150, 16.833983930295744
1151, 14.764659724111425
1152, 9.709835721478612
1153, 1.5994775763301732
1154, -0.528710656064959
1155, 2.933826043622048
1156, -3.0131916339569216
1157, -13.999774804012759
1158, -17.7092646727815
1159, -12.510725530033596
1160, 1.8927175093963342
1161, 8.945377135545641
1162, 7.834863268751633
1163, 18.514647691343725
1164, 32.828904510558914
1165, 35.51765000095793
1166, 27.567602386805447
1167, 10.831220121129263
1168, -3.23507794329862
1169, -10.720366794678739
1170, -3.3071385210473636
1171, 11.232676146762515
1172, 22.47635673665809
1173, 26.69143003776935
1174, 24.108362080578445
1175, 24.37783156991236
1176, 27.863268124536717
1177, 31.078543150984842
1178, 33.0199998518533
1179, 33.18403230295689
1180, 36.125402866719924
1181, 41.66001130870882
1182, 41.483248954861665
1183, 34.82336350418245
1184, 22.233846016315965
1185, 9.92674313630323
1186, 3.4452645721094086
1187, 7.622524371489362
1188, 18.05270157303312
1189, 14.652221389139868
1190, 8.31343255131651
1191, 13.675477839865835
1192, 13.098320694311496
1193, 2.6432297505480165
1194, 0.38750915937953323
1195, -1.5091340801341175
1196, -24.008351555477475
1197, -29.93052076916183
1198, 3.4800334929968813
1199, 23.845529775467185
1200, 23.637728124049318
1201, 28.424709242377958
1202, 26.831579599631823
1203, 3.7914785689536075
1204, -8.259374265643146
1205, -0.6244054763487838
1206, 6.75326952960495
1207, 11.501345016400137
1208, 12.961288261436948
1209, 15.235885192885235
1210, 19.80145467650027
1211, 15.224689133727225
1212, 5.76679216966204
1213, 12.610433130057118
1214, 25.859843098656256
1215, 32.05452304153005
1216, 33.43800672747784
1217, 29.70663368109672
1218, 16.031413992579928
1219, 1.4365534601524814
1220, 0.6387056399062203
1221, 3.9074465631151725
1222, 5.622756441906404
1223, -0.3520660499279984
1224, -10.740632035964609
1225, -17.131641647092238
1226, -15.874816433585693
1227, -5.428649752387628
1228, 1.3852207976165118
1229, 3.6215625474665103
1230, 6.97580549831855
1231, 11.570546937430663
1232, 16.975888890322494
1233, 14.81769828416327
1234, 3.7662170181129113
1235, -10.060619608620982
1236, -17.64495294091512
1237, -7.155244237832449
1238, 10.73340167000697
1239, 29.6824430943916
1240, 33.30174219583205
1241, 27.622212215496802
1242, 26.330123285144055
1243, 28.10207740055057
1244, 29.51589300202795
1245, 14.089496370767847
1246, -6.51180028335466
1247, -7.448505202958131
1248, 3.7976060967303056
1249, 21.656424450148734
1250, 34.574063021406346
1251, 37.61926920085489
1252, 24.770832843818425
1253, 19.270028311206715
1254, 36.67082574734013
1255, 35.92673689955609
1256, 17.284307913635075
1257, 9.757172589025231
1258, 12.239949689429977
1259, 23.086876937966736
1260, 38.31041935813528
1261, 49.80694630450216
1262, 35.420895806492354
1263, 18.160824286286697
1264, 22.064422858747548
1265, 35.298917900874585
1266, 48.71366402786407
1267, 51.736501027778104
1268, 47.7206860438323
1269, 41.61814168811043
1270, 43.69760502129111
1271, 50.36277948747738
1272, 38.96663146568608
1273, 18.663380624025194
1274, 2.84128735705508
1275, -7.100344333393423
1276, -7.843880695061671
1277, 11.743383357793846
1278, 30.187142139754087
1279, 23.990102078066684
1280, 24.72764107908779
1281, 31.402559140786707
1282, 9.508961627033841
1283, -10.321874931647926
1284, -1.389370205389696
1285, 7.424236040667438
1286, 14.287260598566718
1287, 37.820829636757935
1288, 53.41434579601173
1289, 41.72911629149985
1290, 26.278805755159738
1291, 12.838840598991283
1292, 1.3606506564083247
1293, -5.386416118795751
1294, -4.59071683983484
1295, 6.972991906270181
1296, 20.782052007783932
1297, 11.432262998523129
1298, -0.7777842967107063
1299, -2.644147459173837
1300, -2.633278200699806
1301, 1.3803902537947579
1302, 17.090249864195357
1303, 25.04531106937975
1304, 15.806969058717641
1305, -1.4277808255478703
1306, -16.699383805091202
1307, -17.408858979182696
1308, -10.374529567920035
1309, -7.837982411729172e-05
1310, 6.040200964785527
1311, 4.020689282597232
1312, -8.276359687169133
1313, -9.879059473857978
1314, 0.5402715860773242
1315, 1.5822227144517456
1316, -2.098206380387637
1317, -4.155658311663956
1318, -1.0299536879274456
1319, 5.891318934521223
1320, 9.457310652762771
1321, 4.341491408203183
1322, -9.040142513935734
1323, -6.72390894324144
1324, 10.589773676952973
1325, 32.689374023189885
1326, 42.02153507410094
1327, 32.75766768101812
1328, 16.762560141495214
1329, 3.7538645337535854
1330, 4.692794712694649
1331, 13.073451182798635
1332, 21.02936488469004
1333, 11.903818584796682
1334, 1.0163220882536734
1335, 1.4678199400996164
1336, -2.15363211204658
1337, -9.666746510935809
1338, -12.395249511059319
1339, -11.803539064956567
1340, -8.078074462052882
1341, 2.567200737411895
1342, 11.681607006738886
1343, 5.48953249274382
1344, -0.12325616859789079
1345, 1.2383373822813155
1346, 13.951614164755028
1347, 28.447906379630695
1348, 34.34785699431768
1349, 36.544041602418474
1350, 37.81238602554049
1351, 41.47367307231525
1352, 43.89653139043867
1353, 43.02037193476599
1354, 38.11731517917542
1355, 32.01415197089864
1356, 28.41487016364954
1357, 30.073684296381998
1358, 29.480291085350018
1359, 4.971654675340687
1360, -11.431011601457612
1361, -5.474293885852603
1362, -8.227876722722613
1363, -8.010878979251629
1364, 18.215714582316195
1365, 28.875688170026024
1366, 22.11948976350186
1367, 40.32333182813272
1368, 48.27699168350955
1369, 23.004560719742585
1370, 7.5164044415346325
1371, 6.081397218069014
1372, 10.672949650542705
1373, 21.175635084650366
1374, 30.266114509297495
1375, 17.382720686677658
1376, -1.3993589600841005
1377, -10.00138767404178
1378, 3.3283104183410614
1379, 24.886146533481224
1380, 25.192071680889057
1381, 26.696504710227146
1382, 34.4569027115208
1383, 34.374071686876505
1384, 33.87273563500548
1385, 35.92330656421245
1386, 14.095707997240424
1387, -11.293446920432416
1388, -5.529058248059755
1389, 6.730394839029941
1390, 14.555297680656167
1391, 9.561372753159503
1392, 4.253690935561735
1393, 7.392217013429217
1394, 14.538480029489165
1395, 19.23032343644809
1396, 14.944761090642714
1397, 5.678806155704933
1398, -0.986472314846651
1399, 8.4973778853373
1400, 19.26130876226989
1401, 22.409775694306063
1402, 24.12321752510934
1403, 30.279446951749378
1404, 43.88060210994854
1405, 42.77693104708305
1406, 27.099873164237124
1407, 7.923005313112299
1408, -1.1971448861449971
1409, 2.1377993206619976
1410, 11.574457962159158
1411, 17.939653221220397
1412, 15.699023867132837
1413, 20.721789926407837
1414, 27.007442842584624
1415, 23.3116549130973
1416, 11.55256961455143
1417, -1.723110588462987
1418, -3.6527284911003335
1419, -4.915022916759426
1420, -8.340630449374203
1421, -4.769809806598005
1422, -4.701563587116198
1423, -13.060832508110707
1424, -2.5450935179974294
1425, 11.621453112826202
1426, 3.57071841204106
1427, 7.003899581917267
1428, 22.017418716824523
1429, 26.344762738388454
1430, 28.652325347478836
1431, 29.299769385743275
1432, 14.740936037844676
1433, 5.395011157768749
1434, 12.452411459085397
1435, 8.37925670066761
1436, -1.542043789276704
1437, -6.393330684505145
1438, -5.5136714702339304
1439, 0.1904771164217891
1440, 8.213813695459521
1441, 4.450723337476575
1442, -8.097886542474498
1443, -9.690860327789778
1444, 6.3721978567973565
1445, 34.444225011416165
1446, 32.48847159405659
1447, 21.451297316076307
1448, 20.537212538001768
1449, 21.390407892585245
1450, 27.851637065061368
1451, 42.65013308026391
1452, 30.25593006165127
1453, 2.772076219146129
1454, -2.8950862327551476
1455, 2.0267768461590094
1456, 8.759943901264705
1457, 4.442058632790122
1458, 3.5710349351547848
1459, 10.589186611831337
1460, 15.789849157915341
1461, 13.205246432096374
1462, 1.6783449043118708
1463, -7.294239611922876
1464, -3.017447248652843
1465, 20.319980661176032
1466, 34.830576471732
1467, 29.343720310133904
1468, 0.6430553062527906
1469, -7.063738216065303
1470, 2.892989323258462
1471, 7.939000910221239
1472, 14.172736264433297
1473, 16.264633145844073
1474, 0.867047353315229
1475, 3.799084556784692
1476, 28.871082295772794
1477, 40.869358882851884
1478, 45.302121733171134
1479, 45.21943518880698
1480, 36.38954875023455
1481, 26.305611371535633
1482, 20.55618275816596
1483, 19.832638436337675
1484, 16.509072016066057
1485, 6.818128127744785
1486, 8.459346501075288
1487, 11.010630085837875
1488, 1.520077854097508
1489, -2.1297622215342926
1490, -2.35922034845953
1491, -5.710924951932611
1492, -3.3598996741966403
1493, 2.0707589428807296
1494, 2.9891169531160813
1495, -0.8323950692565631
1496, -3.8295227247372168
1497, 3.301550554333062
1498, 7.633347763979145
1499, 8.442417372005366
1500, 14.31395315492955
1501, 12.609062858745801
1502, 5.818953390898059
1503, 12.236658234425704
1504, 14.828342067021822
1505, 11.343608422696434
1506, 15.822394307511331
1507, 11.677731044745997
1508, -1.2504402205831866
1509, 1.9125781799498327
1510, 9.474344364671197
1511, 12.986726936978812
1512, 9.416061600817557
1513, -1.717016927003442
1514, -14.890185002786893
1515, -10.694432409268757
1516, -3.4061165670391347
1517, -1.5250482578317133
1518, -0.8332095086666413
1519, -0.728190267822356
1520, -0.33333920085351565
1521, 3.457115051740857
1522, 6.156078502046967
1523, 5.652033431440486
1524, 9.914093713302009
1525, 21.50834340888059
1526, 35.63980219874111
1527, 25.25081877089997
1528, 7.691253386633889
1529, -2.064743232061801
1530, -6.16658960040354
1531, -0.8872942709463132
1532, 11.940234553902883
1533, 9.788399452139402
1534, 3.5247660110371726
1535, 1.430004809273214
1536, -2.466652926582583
1537, -3.988668256303754
1538, -0.24340077052056586
1539, 7.22254025535608
1540, 10.854906908673911
1541, 5.142448960033562
1542, -12.332236333539868
1543, -17.973170950435588
1544, -3.95282012381972
1545, 6.919603629828316
1546, 13.091093187222668
1547, 11.94951600491504
1548, -4.60930609314687
1549, -10.610920435427488
1550, 4.188301659230319
1551, 30.86211062263851
1552, 44.65471871926957
1553, 39.899533071246424
1554, 31.22507530939174
1555, 18.251368853769236
1556, 5.505193563912144
1557, 4.110994645894152
1558, -9.695443362850256
1559, -27.680972115851546
1560, -15.724107688234199
1561, -9.218608850368128
1562, -10.898272598697076
1563, -6.833408724344281
1564, -15.539158601991858
1565, -30.56853254829184
1566, -34.34675379068085
1567, -28.399660404173574
1568, -16.291895207859397
1569, -3.1355969333399116
1570, 2.312794552730338
1571, 6.518475711380233
1572, 21.209828916621063
1573, 65.72903842090909
1574, 124.0158749097177
1575, 185.19483363231848
1576, 246.8734439309992
1577, 308.76060367952505
1578, 367.7550918527777
1579, 416.44999654912
1580, 455.89193307028427
1581, 485.8815156372734
1582, 503.2581624174245
1583, 502.44048752274057
1584, 482.4590204463084
1585, 445.60862218010016
1586, 387.7976091246778
1587, 308.8872884499142
1588, 213.74098305690768
1589, 128.7702942156102
1590, 72.69392982396221
1591, 38.98560679297452
1592, 21.87093044032781
1593, 8.413601304309395
1594, -9.287666216392154
1595, -19.877096124997024
1596, -28.39177593616796
1597, -37.38750339117178
1598, -41.67426851415803
1599, -36.751011713935895
1600, -24.182327428094595
1601, -12.32870696407872
1602, 0.2530869054339746
1603, 5.05814790200111
1604, -10.409375117150375
1605, -10.81909966195144
1606, -2.6634706015183838
1607, -1.2882792444634106
1608, -0.6726288805521108
1609, -0.21603573023094214
1610, -0.45567288564552655
1611, -2.2338683871971625
1612, 5.229286326087276
1613, 18.971166676902158
1614, 15.981913224311484
1615, 18.136389337669698
1616, 19.512380337504965
1617, 1.1026678737407565
1618, 3.992979899355987
1619, 12.736929609226536
1620, 3.85587764539855
1621, 1.7417260718216312
1622, 3.015776787636696
1623, 5.639765206989978
1624, 16.948000501294246
1625, 21.08766695894542
1626, 10.75108140406087
1627, -11.496102429377743
1628, -10.261272596753543
1629, 4.843915407705936
1630, 12.570430304669344
1631, 31.845565286172814
1632, 35.42490595846152
1633, 14.316805736070137
1634, 18.910563293481346
1635, 10.327939179940131
1636, -10.71222703216722
1637, -2.593451548238818
1638, 1.3744222110608462
1639, 3.4191952448904885
1640, 14.535936540012472
1641, 7.43960168653166
1642, 0.1678377951384391
1643, 4.287707416588773
1644, 5.295297887812012
1645, 16.44399489205398
1646, 29.372928925091628
1647, 20.23597538660988
1648, 14.474814306589678
1649, 0.40311383075254525
1650, -30.71024221353764