a,b
320, 22.157651155708663
321, 9.973622311816143
322, -7.288864890485456
323, -17.57451466501061
324, -19.09976033685416
325, -7.073586879096183
326, 15.228222596076193
327, 30.876649811712923
328, 37.832555699466866
329, 33.27796905835203
330, 16.840939616599826
331, 4.5445459832099
332, 5.636184608882104
333, 15.071438150972426
334, 27.271117705973666
335, 37.43161678066372
336, 36.52979272921675
337, 25.82230125179467
338, 16.324061773174435
339, 9.819246359907083
340, 5.185212866240363
341, 1.1608082126022055
342, -0.5446303389826426
343, 1.635935441253423
344, 5.209397585228544
345, 5.512958042828359
346, 5.8360677702712564
347, 19.396699058717786
348, 46.60084372301844
349, 64.12095873325597
350, 66.88494902075763
351, 61.905870854906425
352, 52.79720271530823
353, 40.128510015203574
354, 24.544656349465185
355, 9.323526845224478
356, 3.259773516479072
357, 4.308583413172528
358, 3.575634689443177
359, -0.2692757384984361
360, -7.697684247064899
361, -19.285799349113404
362, -20.99116235672591
363, -3.4314134689930142
364, 19.202683823296866
365, 25.412944040068396
366, 21.4774721151407
367, 25.29441436850084
368, 34.23675585172623
369, 26.662698038279814
370, 1.1866092768377712
371, -8.609292141522019
372, 7.543810936749651
373, 23.135959228012325
374, 18.025066466372664
375, 5.466064716697474
376, 5.497987254513646
377, 14.519628473369266
378, 20.92449682264032
379, 24.330354953110145
380, 26.737325951025923
381, 28.261717570274413
382, 25.44695107912139
383, 17.133718775785383
384, 6.841508216339207
385, -2.3623109862592173
386, -9.559513412666092
387, -12.873342505125947
388, -13.42589029924602
389, -13.501580252946951
390, -13.081464676716678
391, -11.267123385848208
392, -7.997181496977646
393, -6.27050033218984
394, -6.942992067117302
395, -9.70226504108814
396, -14.598431819156758
397, -16.743296926160838
398, -9.843707041455673
399, 1.3201203144571991
400, 5.027556629661376
401, 2.2233463889988343
402, 0.33023341376610915
403, 0.027542297170839447
404, 1.2862139522476355
405, 4.189123894801924
406, 7.6801621060294565
407, 11.471336355779385
408, 16.351239092210562
409, 23.736911288168812
410, 29.62730829987413
411, 26.883166769720447
412, 18.98548558062066
413, 19.802260297352404
414, 28.309794615743158
415, 29.321729545478775
416, 24.763684187765648
417, 34.90194932183749
418, 67.52096272523977
419, 99.13497172323696
420, 117.31561430413603
421, 127.286624877127
422, 135.32797284582557
423, 139.28506117069537
424, 134.3428096776115
425, 123.64337233790866
426, 120.57730967645603
427, 125.9096207433222
428, 134.4996117050996
429, 144.60077632749835
430, 143.36447173311717
431, 125.86929905912166
432, 106.97992476762283
433, 97.14132500692722
434, 90.94615965335379
435, 81.20799539421387
436, 69.03052979108452
437, 57.11828444498042
438, 44.00662329062288
439, 23.030465081874354
440, -1.7131836968610514
441, -12.123056132570127
442, -5.580896219007627
443, 1.8213669211581873
444, 4.3856764474849115
445, 9.610370157713987
446, 22.929909610800678
447, 33.543328528257916
448, 29.178826334594305
449, 16.17875215278582
450, 8.477346924699305
451, 5.969017645038548
452, 2.974345563397037
453, 0.253424948540669
454, 8.346986701093556
455, 28.92216836792977
456, 43.703679415199986
457, 47.023036347830384
458, 44.348112467793726
459, 38.74708250850654
460, 31.421442657257103
461, 23.553486285875806
462, 15.329891646615579
463, 7.072791937640432
464, -0.5794510317291497
465, -8.609080553055719
466, -16.510914239977865
467, -18.569100132604035
468, -14.628915309082004
469, -8.998191297673657
470, -2.458280265533176
471, 1.124096278599609
472, 0.3299429195403718
473, -1.1553038982410726
474, -0.9824525872472805
475, 0.29790987614705955
476, 2.162243365579343
477, 2.7963241980887688
478, -1.2217447029643154
479, -7.62445287574883
480, -9.342116128030284
481, -6.830888413355751
482, -4.177120819334959
483, -1.2894472382758977
484, 6.279366955134719
485, 19.919365153820763
486, 31.020064691576408
487, 36.45706932043504
488, 39.671130376174915
489, 42.84979076858781
490, 42.749946608290884
491, 35.93477105175316
492, 24.294081143721996
493, 11.108354958278142
494, 0.34874497454347875
495, -1.3871987957081728
496, 3.94663912478336
497, 7.213440205810912
498, 6.950176413468398
499, 3.5859081496664658
500, -2.2927466742721663
501, -9.310545241031832
502, -17.3408408077521
503, -20.085360524912176
504, -14.312770053313216
505, -3.5944528461095615
506, 9.916603183026382
507, 20.616467322970493
508, 18.7235832445931
509, 15.794238553096875
510, 30.646834151662915
511, 59.07368213184054
512, 79.39050912752282
513, 91.8463233299808
514, 103.42145696711668
515, 113.70064546688991
516, 112.93150988402522
517, 100.53556625879264
518, 96.03569775069445
519, 105.2196336178904
520, 115.49623627264737
521, 120.85359277182124
522, 118.24633595961677
523, 105.48754673924395
524, 90.21518423543603
525, 80.99823165108683
526, 72.73522693823088
527, 56.70664461199158
528, 36.245722097205544
529, 23.758396140498917
530, 17.23857715813847
531, 11.615867699531918
532, 7.437037207563662
533, 12.900204185262737
534, 28.29283171242787
535, 37.78285227402375
536, 37.87683031493725
537, 28.308845963173553
538, 9.323616404928543
539, -5.521926859014457
540, -11.31448020033622
541, -9.033142661619422
542, 1.2574999482967542
543, 13.541254217519963
544, 19.880171481199795
545, 21.997694831084118
546, 22.70333511516401
547, 21.77490811282769
548, 18.606234690719248
549, 15.366565697743681
550, 20.807800921737908
551, 31.707223269404494
552, 37.434570243843154
553, 36.50710717098718
554, 28.10474412894564
555, 12.718069403642403
556, -1.1989683959936883
557, -12.874774811843054
558, -20.045412478957587
559, -21.960321908980404
560, -12.538325568353685
561, 12.435835083299935
562, 33.88200144878374
563, 34.32439543405053
564, 27.07687542754411
565, 26.497680479332303
566, 28.099153239852058
567, 25.05509665470072
568, 18.130151256144927
569, 9.067579563034087
570, -0.05792487136659474
571, -7.002870291434192
572, -11.307160805695275
573, -9.680152972603537
574, -2.889219553218936
575, 2.7960899112176776
576, 7.026299504743292
577, 10.346882074500172
578, 12.692039586924693
579, 11.351172223310641
580, 5.873033589521583
581, 2.168305924640663
582, 2.5627970794112116
583, 2.531898477195682
584, -0.4372509182949216
585, -3.1001159394945716
586, -3.5329782660046476
587, -3.9666334346638905
588, -6.407632715949148
589, -7.422011682284392
590, -2.616862900636079
591, 4.718478403808149
592, 8.71641366429867
593, 9.128411321899875
594, 5.608061109280243
595, 0.48674129532810184
596, 0.22087092919082352
597, 3.1387601925580384
598, 2.418858580978849
599, -0.6216261608878995
600, 2.98782156049856
601, 13.809716839933571
602, 25.728613324156868
603, 36.38924275323916
604, 34.502211461628576
605, 18.918635168178298
606, 5.267620042554881
607, -1.4860433832582203
608, -2.2601756317662876
609, 2.589238071280306
610, 8.212009667783605
611, 11.79919399258506
612, 6.492796365771937
613, -11.474145513240728
614, -22.171369508751013
615, -11.569257760888831
616, 3.7700272653510183
617, 9.33987066654845
618, 7.467741942605244
619, 1.298856307404094
620, -5.139359031474669
621, -6.8138019865382375
622, -4.274803299524137
623, 1.9556246574975376
624, 11.365283134879064
625, 22.423146361486033
626, 30.75398682351988
627, 27.89637683670844
628, 19.49528991347961
629, 27.446244674029003
630, 45.232431427941265
631, 48.604690696792204
632, 39.56033846228456
633, 39.87891728586874
634, 49.26934839624755
635, 48.868352613663774
636, 37.82758974038097
637, 32.869688902935195
638, 35.497363361047974
639, 28.28907696807437
640, 8.794921819146111
641, -0.7329135487734675
642, 4.065201446532228
643, 9.616574267739452
644, 11.794188841555297
645, 12.757788156327479
646, 13.601678039991384
647, 9.243358945611362
648, -2.4542255983797077
649, -9.218445288805924
650, -4.961639690642187
651, 0.269464881364911
652, 0.31796679034960107
653, 1.2996901842070656
654, 7.870266568351326
655, 17.16647492949869
656, 25.335401483366695
657, 31.44253001325069
658, 34.53566970371412
659, 34.752903926599174
660, 32.257854229329496
661, 26.987027334034792
662, 18.85351215180708
663, 9.079640817617474
664, 0.47328266891236126
665, -7.276894369794718
666, -14.019786737453614
667, -16.93253175280006
668, -9.419773046547562
669, 4.015178664145424
670, 12.665690056187486
671, 15.535625293861813
672, 12.236976837712064
673, 6.158223667806851
674, 7.243181623108285
675, 13.550945914157637
676, 16.53542798003673
677, 17.009336282566437
678, 19.47659075726915
679, 22.511400358174797
680, 19.546869960729055
681, 11.58005217696791
682, 5.078951044518362
683, 0.8676916081885793
684, -3.0831342650271836
685, -6.104542450941153
686, -2.463825767932576
687, 7.255914644326367
688, 14.911668432033366
689, 17.991478215322786
690, 13.829224193778828
691, 4.076011908010514
692, 1.9075981609676091
693, 9.10265424112913
694, 25.12098839900591
695, 46.216199810555736
696, 53.716056937400026
697, 45.46061081990683
698, 33.189998288429706
699, 19.564126248534194
700, 6.191359084889882
701, -5.1415405742882285
702, -8.443168535950463
703, -3.270691987526334
704, 2.5208033504413834
705, 7.669706983336255
706, 14.808878186417132
707, 23.36494163998759
708, 29.698085626055217
709, 32.535330260479896
710, 28.53606366274289
711, 17.641868404381057
712, 9.70094733008591
713, 8.178885206105406
714, 9.422401556664227
715, 12.58636740759539
716, 17.31287579507716
717, 22.990745559673087
718, 19.737873079357087
719, 5.7273623926557775
720, -3.6398875797212895
721, -4.906621801192159
722, 0.044719852981870645
723, 10.548992954089044
724, 18.460694609916573
725, 21.332119309310656
726, 20.111284722623168
727, 15.421590080311944
728, 11.570712466926125
729, 9.369343719503377
730, 2.1253233733032175
731, -10.735072645913533
732, -14.499330979894694
733, -5.9032474898576766
734, 1.0644899653425455
735, 3.549858996801049
736, 12.276575236133795
737, 27.853219132315644
738, 26.0421659333997
739, 3.002190018845795
740, -6.9001793768775315
741, 2.0748042257291672
742, 2.087817498496406
743, -12.111991307598146
744, -17.188837908168352
745, -8.754351149830654
746, -0.30137662715696933
747, 5.350294747650878
748, 7.285830952773722
749, 5.665582767520391
750, 3.7195411160137155
751, 1.980282350440575
752, -0.8925868625401563
753, -4.270074933129763
754, 0.6189900771696557
755, 13.46927559951564
756, 16.375108433646346
757, 8.243600603618688
758, 3.3191498597689133
759, 3.7041272695978478
760, 5.2412929811134745
761, 6.838529020993519
762, 8.263510260529074
763, 8.972223831785413
764, 6.4503429773403695
765, 2.0445870298863156
766, 3.5945043837100457
767, 9.588285849904423
768, 8.899926874843004
769, 2.508277088054456
770, -1.188639665611845
771, -2.3870341341771564
772, -3.3168359522342143
773, -2.475193569631301
774, 5.768201716318799
775, 18.172423205357518
776, 21.515121459496186
777, 17.343295814992416
778, 11.573948386611846
779, 5.3108250318719
780, 0.9434024678221249
781, -2.016082605819065
782, -4.12025219651423
783, -2.3117983124229795
784, 9.598869264937093
785, 25.073731460203817
786, 30.376577991601152
787, 30.007792659994266
788, 30.664011172450046
789, 29.945210916542237
790, 24.786749736631464
791, 22.811459264308724
792, 34.54600168518937
793, 43.70257538441456
794, 37.35311757805266
795, 27.23192601383107
796, 22.60432857637261
797, 18.187102800393404
798, 12.33929609961524
799, 12.975775311475445
800, 24.899002554928302
801, 37.834580010650825
802, 47.125665745121296
803, 49.43878059870258
804, 43.43712371657148
805, 30.972123185116743
806, 13.037666179513053
807, -4.897089440750278
808, -21.722928188813512
809, -22.54211314012082
810, -5.278058013862392
811, 13.489188067612758
812, 31.857541709037378
813, 50.252135138613085
814, 66.66631339604692
815, 68.62309950764529
816, 57.799554707155494
817, 49.64579885162766
818, 46.066019209123624
819, 47.38689972156999
820, 51.712140283237204
821, 53.30946105362864
822, 51.40685897176127
823, 45.04447740480282
824, 36.5269301485564
825, 30.58895838549506
826, 24.678403803146466
827, 14.375598523408826
828, 3.297871099549411
829, -6.6848393361242415
830, -13.828202356033671
831, -15.97116824008026
832, -11.362290736916293
833, 1.9741344620197196
834, 14.91068453786329
835, 22.090065319224323
836, 30.463532882304662
837, 44.07497871693204
838, 54.33096936825723
839, 57.647922506457235
840, 54.154803810592966
841, 43.942671544144105
842, 27.505013479001263
843, 6.747479051440678
844, -4.4331876275923605
845, -5.601591387357075
846, -3.224683538420777
847, 0.8936812102920157
848, 2.6475377462252254
849, 3.0527135855186316
850, 6.6016372356584725
851, 12.373627601808948
852, 15.552422483479859
853, 19.807377508504487
854, 32.81950076549401
855, 43.00943974904294
856, 32.45108397370586
857, 14.74546397219774
858, 5.6721600792120626
859, -1.409640722423319
860, -13.14517690304001
861, -17.728954572699877
862, -7.946188522166722
863, 0.3380931041756412
864, 0.3239895167967006
865, -0.6278092973884668
866, 0.6059190603778006
867, 10.101797655661358
868, 28.504259550444658
869, 40.791311354198115
870, 44.51581314800569
871, 41.51194908689013
872, 32.13649957795997
873, 16.749528217595525
874, 1.7253638292704636
875, 4.847915869075678
876, 15.015723602525668
877, 6.168408554961843
878, -9.361140658194927
879, -14.347159500158341
880, -12.18511224014992
881, -5.972233281140234
882, 3.8684647504037457
883, 17.228877998328244
884, 19.785165620487987
885, 5.173207499931777
886, -1.9622709881004994
887, 6.001503110976046
888, 16.7494271159685
889, 25.123462005166402
890, 24.98329871152464
891, 16.811382731594676
892, 8.984093027374456
893, 5.377177738000228
894, 11.9881347994301
895, 25.84197273681957
896, 35.5764301590807
897, 39.33997799502458
898, 34.73115803191513
899, 25.327111054150464
900, 15.44687287475017
901, 5.04537687488255
902, -5.18522488023973
903, -5.1972004132730945
904, 9.850743576119385
905, 16.050475400601954
906, 5.926301085093655
907, 0.08409945730636537
908, 1.5110349369201685
909, -0.8821236611547647
910, -4.4645626384017305
911, 10.996816030897662
912, 37.995882543395965
913, 42.795909406993815
914, 33.36473987998215
915, 29.37272681452714
916, 26.313685465343497
917, 17.537152580753627
918, 6.063669894710529
919, -4.718184252113133
920, -6.883831443323743
921, 3.733587020557934
922, 14.695497107857136
923, 20.83116406733643
924, 25.54489041555098
925, 28.633872623676325
926, 23.850486440954228
927, 12.820474928874773
928, 5.457551574312674
929, 1.62453370461526
930, -3.1013939206604846
931, -5.225364989123591
932, 1.8327506927489594
933, 12.240908254969781
934, 18.870403897752567
935, 17.359992930906174
936, 5.44674335254922
937, -2.379266393949365
938, -1.9227191794620921
939, -3.4945058395978776
940, -8.33840825783409
941, -6.011370506861567
942, 3.427660537652173
943, 12.636707371067587
944, 24.438967141498324
945, 44.20128624821791
946, 56.71011680648189
947, 37.76193432990203
948, 14.568859437522406
949, 14.417882259720955
950, 15.147093362711075
951, 5.514497616320114
952, 1.858631581564623
953, 7.166073425133618
954, 0.35897928020813197
955, -17.071917811598723
956, -11.534352619269157
957, 12.407439803840589
958, 25.99671562286676
959, 30.337770137208736
960, 31.359756942023978
961, 25.711738701800186
962, 9.516328401691226
963, -4.539421599297384
964, -10.022886448063673
965, -8.282078761255434
966, -0.28185579223054447
967, 6.953567458538146
968, 11.361431959981473
969, 12.28202217678836
970, 8.684838578501058
971, -2.329161596153881
972, -12.763509659816464
973, -7.783982180415023
974, 4.018068104629492
975, 13.313271830769281
976, 16.75257531269699
977, 12.632380152629594
978, 3.949293572289207
979, -5.749951267027882
980, -0.6812818788234836
981, 18.629987821369014
982, 30.713225797755513
983, 35.19028781018005
984, 37.95377023741321
985, 36.8775923857479
986, 28.183896932323023
987, 19.007762900989746
988, 15.321700982412494
989, 8.845940440087816
990, -2.1633488958996168
991, -1.389495920419904
992, 12.142358763190714
993, 14.648286401970381
994, 7.774855098500666
995, 9.956478232152222
996, 16.95956743382021
997, 17.015307117055727
998, 18.313221022351627
999, 29.224331636126408
1000, 32.26309722000224
1001, 18.892408619885828
1002, 8.194416154060946
1003, 5.076423225394137
1004, -4.047242806729173
1005, -16.219782200552345
1006, -11.293695741685497
1007, 2.36486974166246
1008, 5.485324656344346
1009, 6.868010740051432
1010, 15.924193433868368
1011, 20.565771604550264
1012, 15.620980521878664
1013, 19.375129804291646
1014, 32.94567532622932
1015, 40.85691123351262
1016, 41.36575585245964
1017, 37.158673404796446
1018, 29.361062850886356
1019, 19.602820927614175
1020, 17.010750484469554
1021, 27.470515909510596
1022, 35.678700613734236
1023, 34.71316800855493
1024, 21.603169816776244
1025, -1.2640522384244832
1026, -18.566504712035567
1027, -25.61282593475562
1028, -11.818873730092037
1029, 10.066622959317556
1030, 21.915144139876702
1031, 23.718742898229266
1032, 17.006570578333594
1033, 15.167703906791758
1034, 21.13119156957555
1035, 20.802399686187073
1036, 14.178049799467772
1037, 10.603850622814207
1038, 6.968641991732056
1039, -3.1558240844055945
1040, -6.24849458625431
1041, 9.829216446369628
1042, 16.38447620294437
1043, 2.385828538689111
1044, -7.528095517582187
1045, -9.543335205748008
1046, -8.560905066826308
1047, -1.7140158133629484
1048, 18.87522229975457
1049, 31.96868232477982
1050, 14.450056271702124
1051, -5.21126916177127
1052, -13.105174370851728
1053, -19.2487160292726
1054, -24.087795634226495
1055, -15.31819774621863
1056, -0.3673139406564587
1057, -1.3102635348604963
1058, -6.7157242130329
1059, -2.589313686065452
1060, 0.20682208482003261
1061, -3.6110269573878213
1062, -5.572313451249556
1063, -4.644830672363696
1064, -6.786319352440842
1065, -9.156407320493145
1066, -3.00114182012112
1067, 12.916458254017925
1068, 40.51400317949856
1069, 84.11906831555507
1070, 147.23328931289552
1071, 204.0228352172535
1072, 250.52813905166795
1073, 289.4419576291293
1074, 320.2276564845083
1075, 341.09645349562334
1076, 352.37161997623434
1077, 354.62972533406673
1078, 353.7405056223347
1079, 351.40342960838734
1080, 339.2424935083336
1081, 315.95569995043616
1082, 283.54042279995383
1083, 243.042256752919
1084, 195.97405486092111
1085, 146.76023880990078
1086, 98.65585117515138
1087, 58.895924117693994
1088, 23.98501234996911
1089, -0.9769606158160968
1090, -15.34228374125405
1091, -15.866731313391938
1092, -11.364746851621021
1093, -12.757934825876418
1094, -15.469485659672955
1095, -16.796136062542246
1096, -13.678192010981547
1097, -7.304250562393918
1098, -6.568028110738396
1099, -10.39626552464415
1100, -15.355442865562964
1101, -19.124025894574515
1102, -19.40938930775883
1103, -8.410435857583252
1104, 13.207452413152168
1105, 18.51818603284846
1106, 9.102709419567418
1107, 0.9353443973072899
1108, -5.705895019802483
1109, -11.977303744537949
1110, -9.366546222472152
1111, 4.9507271217080415
1112, 15.691127557111486
1113, 18.262228059912104
1114, 11.47643477165866
1115, 1.241702789426654
1116, -3.168776143159903
1117, 0.7442534701845034
1118, 14.618096314906325
1119, 33.552786809892496
1120, 51.22398752775143
1121, 54.720674093849084
1122, 47.23741890890369
1123, 37.265772465471855
1124, 25.049900262800293
1125, 10.799683042336255
1126, -2.0008081000669335
1127, -11.811356811021142
1128, -9.74092456397193
1129, -0.3310768250353249
1130, 4.6885901318105425
1131, 9.194256190268334
1132, 15.490912214280797
1133, 15.520921366801758
1134, 8.36786248817225
1135, 5.678875765367593
1136, 7.825102894090833
1137, 12.875796367610292
1138, 21.020231913336374
1139, 30.656529794142898
1140, 39.916734629277016
1141, 46.55091527456398
1142, 42.08575372602354
1143, 31.92501341242496
1144, 31.185367353418314
1145, 28.103899391483992
1146, 12.323177234885407
1147, -0.13033381112427378
1148, -4.940190579595765
1149, -2.243469956487843
1150, 4.4184326820736715
1151, 7.407643314821598
1152, 5.479472600398367
1153, -1.4096902945266265
1154, -7.20274333244879
1155, -9.8294031991245
1156, -7.062788852075755
1157, -0.2942178322655309
1158, 7.301641465420744
1159, 13.40635366667766
1160, 15.976862470877222
1161, 10.253040957478333
1162, -1.5503463089430625
1163, -4.91113120199816
1164, -4.425893197152163
1165, -9.302914471119493
1166, -7.184731943830229
1167, 8.193831043212413
1168, 21.278799959045955
1169, 28.805190721759573
1170, 36.32619975035914
1171, 37.339763025959655
1172, 23.423211653435374
1173, 8.770659847182287
1174, 1.6569346103074167
1175, 5.42503635834737
1176, 13.588033950319641
1177, 6.7991976832609
1178, 4.691085816074974
1179, 23.737869214319744
1180, 35.54159002504002
1181, 33.97248325114424
1182, 36.36093337514876
1183, 34.81391247456804
1184, 11.749761793297694
1185, -6.081500346915163
1186, -5.951994789622859
1187, -6.941843487118604
1188, -10.056254587701915
1189, -3.798306707429674
1190, 2.164360925713936
1191, -4.0180020834136485
1192, -5.8296907093044865
1193, 1.7502081535676552
1194, 7.893496133110148
1195, 10.748781738574053
1196, 10.512891779808342
1197, 6.489661425783652
1198, 0.24426632023778438
1199, 6.0469027774579445
1200, 24.252688773602586
1201, 40.30149432310645
1202, 44.23612154367538
1203, 26.063473227060513
1204, 5.630653312045524
1205, -6.778363749817345
1206, -5.832224540039988
1207, 5.308530628026801
1208, 19.415629363323205
1209, 25.281600673926732
1210, 18.83293936152586
1211, 28.284592587838233
1212, 50.59450602984771
1213, 63.71537080801363
1214, 64.84361508435859
1215, 52.732474522428674
1216, 30.37039717196285
1217, 3.4547306563745224
1218, -7.59468995901716
1219, -5.90819992503657
1220, 1.8573359790229915
1221, 12.652142869407726
1222, 22.875593367269175
1223, 22.99210782721093
1224, 13.911913029784046
1225, 1.3600347583364965
1226, -6.542277626854684
1227, -5.8692228022628115
1228, -5.0771940577333226
1229, -6.741393872460321
1230, -12.534127460637137
1231, -14.264014426383255
1232, -3.9968465914521403
1233, 8.563774242873933
1234, 18.831803971208046
1235, 21.432565363380036
1236, 18.234428899906106
1237, 12.563596581594993
1238, 7.53178375712514
1239, 4.678358511650458
1240, 0.9847587128479063
1241, -0.5246101282536983
1242, 6.227898111871127
1243, 16.46533674957618
1244, 26.48897447389254
1245, 35.6033847340218
1246, 38.13127385948974
1247, 22.85795240133575
1248, 5.210218590164004
1249, -3.5497026763146096
1250, 0.3260038902544693
1251, 16.82895165956552
1252, 44.17533257749301
1253, 60.45173620339165
1254, 52.06930027111002
1255, 33.92724617502017
1256, 16.008291891002955
1257, 17.13114728924529
1258, 26.163164181083175
1259, 31.134492870138274
1260, 34.81771441628598
1261, 37.76571438088604
1262, 39.324760387744846
1263, 39.54776260111066
1264, 37.81423420357669
1265, 25.241747535015747
1266, 6.789971898341719
1267, 7.6930325066509795
1268, 14.206276240485295
1269, 10.98081991141271
1270, 15.416004815298493
1271, 24.697620146443114
1272, 16.158602246760893
1273, 9.318779062140038
1274, 24.449036703695583
1275, 24.65001068482752
1276, 7.161373010616899
1277, 1.279947673102015
1278, 1.1722141133391233
1279, -0.31163828945000205
1280, 3.3533838063467556
1281, 9.377551854198828
1282, 0.6725810263196763
1283, -4.8756232759801605
1284, 8.705901010423986
1285, 19.183822207109188
1286, 21.30720217119415
1287, 19.218517756621623
1288, 9.518493103353194
1289, -8.58625931223969
1290, -10.150259496212584
1291, 1.1408498166160825
1292, -1.8753324632034492
1293, -6.759710409256513
1294, -2.9310192023558557
1295, 8.413732355365482
1296, 21.58232255744224
1297, 23.186599106682934
1298, 16.01298436596653
1299, 3.68893753460452
1300, -3.584506671762483
1301, -4.368766402223628
1302, 1.6175247724740984
1303, 11.741507669248676
1304, 22.069303317172853
1305, 21.329179264653703
1306, 13.925755033136284
1307, 9.966738178111882
1308, 1.9520607801928236
1309, -8.824797461525577
1310, -2.4352203316475425
1311, 8.833984573419002
1312, 5.986340314038898
1313, 9.156230506860993
1314, 18.27027251598929
1315, 10.285134128318077
1316, -2.505910062089697
1317, -6.817706799241478
1318, -8.361178386079246
1319, -7.200739241347037
1320, 0.7926554778941863
1321, 8.738123025175355
1322, 11.803757395880439
1323, 16.207304205578566
1324, 19.744004545430016
1325, 15.929971609938093
1326, 10.582082319063375
1327, 5.8864215189437346
1328, -1.7844442260143296
1329, -6.1752455389882925
1330, 1.4472562272831055
1331, 3.838230211798418
1332, 1.7977616153143572
1333, 18.37923534698075
1334, 36.165353877971484
1335, 38.96183518515363
1336, 32.818777527879774
1337, 20.369201750716
1338, 4.405194471587492
1339, -5.923838105135928
1340, -7.434217188883849
1341, -4.071369140862316
1342, 4.369747544977145
1343, 19.01872638919167
1344, 33.468172182822855
1345, 43.949356311135034
1346, 45.23011225760183
1347, 34.94977177289775
1348, 14.580294925490307
1349, 11.923123421121545
1350, 20.783463891400515
1351, 15.882007190138665
1352, 3.4660676845683156
1353, -9.968976522712182
1354, -13.819102872805615
1355, -3.1478042528274273
1356, 24.30739043518497
1357, 26.417380959215734
1358, 4.711204863188868
1359, -2.6977355834701484
1360, -4.046286769054859
1361, -3.411212587961927
1362, 12.49627799704649
1363, 26.72180138444628
1364, 12.404037587151379
1365, 4.984968544325511
1366, 9.960827136421358
1367, 2.0357972529691324
1368, -4.368176680326542
1369, 0.681196060275397
1370, 6.351862580783745
1371, 7.967700641460851
1372, 1.99317180888238
1373, 0.17807245999620136
1374, 3.8741384167874457
1375, 2.9419064335324947
1376, 8.260124297285529
1377, 26.16841795263872
1378, 27.711321828370274
1379, 14.247793272009403
1380, -1.6316372817841511
1381, -8.243919281874241
1382, -2.080666619554904
1383, 15.703460754002663
1384, 38.55772182182409
1385, 55.47874820058405
1386, 46.08780183341196
1387, 23.09415913204657
1388, 12.134807436038955
1389, -6.391457776572679
1390, -27.616260227572184
1391, -9.468640152573698
1392, 14.680407353287137
1393, 24.428603643744736
1394, 41.886382358021365
1395, 53.22191406474076
1396, 37.01579369319688
1397, 33.57889863605715
1398, 39.03775644624375
1399, 12.168582863691881
1400, -6.701434387151494
1401, -1.7108457519989315
1402, 1.7235764143092638
1403, 6.9297403427272
1404, 19.368295396217036
1405, 23.1736254539328
1406, 21.903033901016443
1407, 28.724180154980786
1408, 26.529331362155517
1409, 13.479903090626976
1410, 8.069239933091467
1411, 4.233330653118628
1412, -2.3504058781531967
1413, 0.7505930466522841
1414, 3.9326708584599146
1415, -6.8669724299488735
1416, -13.76272796178091
1417, -12.290972621013225
1418, -3.323024213426379
1419, 7.315483853869409
1420, 18.573757086393925
1421, 33.75868899273155
1422, 37.34572391176198
1423, 20.278950054399957
1424, 5.654412639171369
1425, -1.7283452949163802
1426, -2.1814723367147053
1427, 6.236070193186151
1428, 18.154482970736353
1429, 18.167487734354836
1430, 8.491686402836422
1431, -4.882157900820857
1432, -6.1996088390828845
1433, 1.7905274533459306
1434, 13.619570426314567
1435, 10.491188827703809
1436, 0.4222222723951745
1437, -3.8758416130935984
1438, -2.6885818301611835
1439, 3.0257889476420132
1440, 11.186711310579085
1441, 9.749759255995286
1442, 2.1009039781683896
1443, 8.991712193028434
1444, 20.857446523135877
1445, 28.806834400471416
1446, 25.868046962098106
1447, 4.9105310682334675
1448, -28.77654721211229
1449, -18.177233376074582
1450, 12.026882717763783
1451, 22.883613431473805
1452, 34.297341206218334
1453, 39.0887386879449
1454, 17.965519678018154
1455, 20.264072195668177
1456, 41.311025815968605
1457, 32.34246792651311
1458, 18.699434425703657
1459, 11.197778757834385
1460, 1.3454323864075377
1461, -0.8459786963539955
1462, 8.058367661697048
1463, 7.159026185377115
1464, 3.784884520453488
1465, 6.215092131469191
1466, 3.1063361040073687
1467, -2.527929600191328
1468, -4.423610241165534
1469, 3.2234218617454644
1470, 18.158164921116622
1471, 31.255578546956713
1472, 29.02309925491363
1473, 13.410198516099172
1474, -0.730788638040849
1475, -4.238368626050487
1476, 2.5659476463911233
1477, 9.552240155149775
1478, 11.428327655692556
1479, 8.241571524240499
1480, 8.870573447041807
1481, 10.089067467878522
1482, 8.265360755468464
1483, -0.4774790221536023
1484, -5.523264723621196
1485, 0.22447020136496576
1486, 5.3071641203659965
1487, 5.911258400444694
1488, 1.6609252779135204
1489, 4.6938707468671055
1490, 10.262452692260467
1491, 8.816335156660443
1492, 8.427227583710646
1493, 8.703011184794377
1494, 6.74074082567131
1495, 13.63691556628919
1496, 20.697851332412483
1497, 8.406297829898449
1498, -5.326268104627616
1499, -8.77099838392769
1500, 11.608036503492713
1501, 26.246652343229925
1502, 27.36448655624008
1503, 28.96512000345774
1504, 26.689112636675418
1505, 22.501257336546132
1506, 27.03975295804321
1507, 14.821984445792623
1508, -12.729249036408419
1509, -14.186689919710716
1510, -1.51949977361528
1511, 16.10167451858524
1512, 30.151093273726474
1513, 27.446177885073666
1514, 9.750811133468233
1515, 10.252500265645722
1516, 20.14694254932283
1517, 26.644405669989283
1518, 12.896225815608886
1519, -0.03934961994264086
1520, -0.48841767669182445
1521, -1.4442834988853974
1522, -7.44567667250476
1523, -17.27918709614778
1524, -15.617178023275756
1525, 2.1686709777300166
1526, 31.72877737958197
1527, 38.959023528333546
1528, 25.411874676146
1529, 5.592175714586119
1530, 25.273595349156494
1531, 44.90863916703756
1532, 37.29863624638847
1533, 19.66351694942341
1534, 2.634585168115791
1535, -5.857114955362704
1536, -0.19672747629419973
1537, 10.103263284992863
1538, 16.539339632862266
1539, 14.293080446459044
1540, 9.338932152326379
1541, 4.150080092177632
1542, -7.0364470529757455
1543, -9.173399734076611
1544, 1.0566102562888773
1545, 1.2880642180230097
1546, -3.912818642055754
1547, -5.825725935567789
1548, 12.659244873747411
1549, 29.06868280534036
1550, 31.5192605522152
1551, 22.632450855366642
1552, 8.256496972481727
1553, 1.3838028838504215
1554, 24.422149996331427
1555, 26.69081645048709
1556, 0.9224468289994547
1557, -17.754596026878517
1558, -22.55920667131886
1559, -10.17887550524074
1560, 20.026857701859626
1561, 27.684709600056976
1562, 10.448440382088847
1563, -9.77866350263048
1564, -10.735537326737813
1565, -0.6314255749439326
1566, 0.7122201022980335
1567, 3.070451023321766
1568, -2.0111158028685168
1569, -23.30807320928534
1570, -24.067424572052005
1571, -11.785278949928852
1572, 1.9248338768989015
1573, 31.44962560208478
1574, 54.98694158066655
1575, 56.85663846636089
1576, 83.27571249072344
1577, 130.0666986322949
1578, 177.79975619145807
1579, 214.04777407329038
1580, 237.56745597271993
1581, 250.59256170871367
1582, 259.50686541976165
1583, 265.00525024075387
1584, 256.5465470013296
1585, 214.85955857842646
1586, 186.02661808139146
1587, 166.3781539773845
1588, 128.9038531788874
1589, 100.15601585991226
1590, 65.9778840037884
1591, 15.594012817224666
1592, -7.636288109831639
1593, -14.466622938924502
1594, -19.432100261192318
1595, -18.754261476234205
1596, -9.821134466852527
1597, 7.839589630390492
1598, 29.69797579783244
1599, 33.13614923172463
1600, 13.35482458360866
1601, -15.204483705823804
1602, -16.023045544372053
1603, -0.8480998157706381
1604, -5.024323288374944
1605, 0.1715036634846001
1606, 9.812016811798003
1607, 13.074539741536682
1608, 28.981435756112205
1609, 29.48155003160082
1610, 3.9989015521209694
1611, 1.287465882483957
1612, -0.7342985384789245
1613, -7.934746375560735
1614, -1.619602627967197
1615, 5.415775761395707
1616, 12.063784279713218
1617, 22.164312290655744
1618, 26.19473510536909
1619, 22.10634582913508
1620, 11.011085793484199
1621, -1.1098509835032928
1622, -7.996230118241783
1623, -5.958063554988257
1624, 4.297997328089423
1625, 22.38143264545124
1626, 46.95945037927049
1627, 74.06350581197648
1628, 66.66579255044053
1629, 33.08836165153207
1630, 1.7037693380734709
1631, -2.934366999435497
1632, 4.937562595408508
1633, 10.552774095493078
1634, 7.201758756524669
1635, 3.9306765058508972
1636, 6.997143923064868
1637, 19.750070729272466
1638, 16.04210093873826
1639, 3.359691801691042
1640, -0.4044923209089575
1641, -4.452411827384822
1642, -6.9710848242771135
1643, -2.4925321101982263
1644, 18.54777936351411
1645, 33.70464734350253
1646, 29.101785505264615
1647, 0.5419702896033414
1648, -20.570015593259086
1649, -15.646683475425561
1650, 16.586571414880837