##NAMES=
##LOCALITY=
##RRUFFID=
##CHEMISTRY=
320, 7.6360844130440455
321, 1.3374571049407677
322, -3.106613086833022
323, 3.353054021668868
324, 14.866629522374751
325, 19.694864245806457
326, 18.76080797783743
327, 16.439913667764813
328, 13.071242567873924
329, 7.738047372144138
330, 1.0622729219303437
331, -3.8820933929864623
332, -5.537046715717224
333, 0.9081258372580123
334, 22.397275339187217
335, 48.6155823466097
336, 51.33154412035037
337, 33.67684964340333
338, 25.158501424889437
339, 32.636970407859735
340, 39.656138481173
341, 40.922661602597145
342, 46.40984171123728
343, 64.32392282799992
344, 78.28267707759733
345, 57.953227508504824
346, 14.128736887564628
347, -6.918589712296125
348, -4.598436635094913
349, 4.096467114372899
350, 15.74410625908331
351, 29.02435447692369
352, 41.08229986070728
353, 43.78206486713043
354, 27.912185601070632
355, 3.0324469096867688
356, -7.6014176730341205
357, -5.547767638389814
358, 1.846860004850896
359, 13.495000254425577
360, 19.119464439300828
361, 15.697551870672214
362, 9.18942003660868
363, 3.3397707994336088
364, 1.4411996175440436
365, 7.353865842339474
366, 17.587342355974215
367, 19.938326766658975
368, 15.098211891887331
369, 11.113255270517584
370, 9.163937760005865
371, 7.204690609628415
372, 4.547322248074124
373, 3.314654278044145
374, 4.533125232440398
375, 3.9046355194104763
376, -4.403855297364316
377, -15.544298806942606
378, -15.00338354255382
379, -4.565073295930233
380, -0.38979335438580165
381, -4.078090809403875
382, -2.2880407612265117
383, 9.817174720052208
384, 25.97645604302761
385, 40.148251543309016
386, 49.32341129618362
387, 49.25086304771503
388, 40.30422760613783
389, 23.59794919586966
390, 0.953643161616128
391, -17.85608575965307
392, -32.58283710678188
393, -36.0012208584003
394, -25.95137825169695
395, -14.410037857273892
396, -7.964373704249738
397, -3.858031106879025
398, 0.8731249338516136
399, 4.448581247646871
400, 1.9389910257677911
401, -4.833440612375853
402, -6.278392317139151
403, -1.2065185177807507
404, 11.817030915300165
405, 34.04822433469599
406, 58.95458849256556
407, 84.87722101400868
408, 109.48862737027684
409, 136.03694929191624
410, 159.89003270648936
411, 172.7824942502857
412, 180.91774993539093
413, 205.33630111529055
414, 243.00733407038115
415, 263.7192321411185
416, 263.12185215379395
417, 257.2204637771083
418, 251.47251470150968
419, 247.51561460243101
420, 246.3679557779251
421, 249.9721358152574
422, 260.66354400797627
423, 269.9677212965562
424, 259.0490083886689
425, 231.8190216415096
426, 206.84270709440716
427, 185.6906599042468
428, 165.2846712796054
429, 144.79614960439812
430, 120.8945341939334
431, 92.28100669944797
432, 59.71514163910251
433, 29.7046989546252
434, 7.986248504144896
435, 3.993613383810043
436, 10.056046093146506
437, 9.379902186357867
438, 3.887278559803235
439, 4.556093204652825
440, 11.078269194269524
441, 9.499424296578582
442, -2.4717266966044917
443, -11.883766334402935
444, -14.563349525690683
445, -11.860325900941461
446, -4.236764951892837
447, 7.225128079789101
448, 21.36963464287237
449, 34.31824885368951
450, 39.19245680435324
451, 35.398224921824294
452, 21.609349778385877
453, 0.5969308456315048
454, -7.742322397756652
455, -1.3549732645069525
456, 7.7447838363514165
457, 16.2540685962349
458, 22.251636526322727
459, 25.094071768517097
460, 21.384387174441144
461, 7.779887667564253
462, -5.6175001814599455
463, -4.058938468749147
464, 6.622682089252521
465, 8.722136797798157
466, 2.96433747404717
467, -1.1773470734360671
468, -2.7577910086974953
469, -0.8098647739707303
470, 4.934732680865636
471, 10.381297562150394
472, 13.797637413927077
473, 9.608735761994467
474, -5.884104296577789
475, -20.753809852737504
476, -22.1303380154759
477, -15.346715518579003
478, -9.719802163420354
479, -4.678139792511502
480, 1.075770618585011
481, 6.582794659860156
482, 3.4919425751395465
483, -6.923537392651269
484, -6.066741361391905
485, 9.828499145030037
486, 17.962677917817018
487, 9.310126986759315
488, 6.098135291749713
489, 21.545214198284157
490, 40.03744440986429
491, 45.67507109725739
492, 42.57997834632624
493, 37.91026999100268
494, 30.805763321644008
495, 18.559774178509542
496, 3.7223499872261527
497, -1.5447085393552697
498, 1.6062124901627612
499, -1.109939742653296
500, -12.143580458917313
501, -22.25487211800646
502, -28.950417259119604
503, -25.803311558768655
504, -9.0169887697175
505, 12.32591569345368
506, 31.987994457546847
507, 42.40621740040751
508, 35.58272404969648
509, 22.447205889827273
510, 26.805111878874413
511, 47.839515724483135
512, 82.16652723343304
513, 120.72241981767729
514, 145.3909166030262
515, 154.88667100043222
516, 156.7058012559728
517, 153.6547439580272
518, 162.9490646328877
519, 189.22370256040176
520, 206.64836870588806
521, 202.98229490494123
522, 185.99685967360256
523, 161.27279440340862
524, 138.12522284119677
525, 127.00472970678038
526, 121.92552974054252
527, 112.65604235736191
528, 97.31949114166946
529, 71.61496831480144
530, 39.38762454887183
531, 19.69072193448119
532, 11.239493505499922
533, 8.989703282045411
534, 11.00450451564484
535, 7.950266405450748
536, -1.7646329304316168
537, -2.960701006047202
538, 9.587706646909282
539, 25.166145914620756
540, 36.7162755555255
541, 39.04940637538493
542, 28.333286486591533
543, 12.76640915567532
544, 2.712819594422399
545, -0.5613088336376677
546, 6.298379481447228
547, 16.98332851255782
548, 14.524630116249682
549, 3.401096267063622
550, 0.8562150788538929
551, 8.143773356994643
552, 26.85982761744617
553, 52.99569732605596
554, 63.396347273144784
555, 54.8683982706998
556, 41.56540940584364
557, 27.34549309311933
558, 11.009110353361393
559, -6.476287999939814
560, -12.161405125213605
561, 1.1696826725665233
562, 10.955080618133252
563, -0.8961464390531546
564, -15.052802312964559
565, -11.989112627732084
566, -2.8827128448215262
567, -4.282811581667829
568, -10.93043920404034
569, -11.851053466936264
570, -8.53960062610804
571, -5.670094971593699
572, -2.7734090663088864
573, 2.3200764949274344
574, 8.754645381057344
575, 8.005180618831218
576, 0.3273786924733031
577, -2.970851399064486
578, 0.287270772831107
579, 12.297948728052233
580, 33.908611179421314
581, 47.360231987340285
582, 46.45515836735194
583, 33.09727417516524
584, 8.4058391500389
585, -10.032650412698786
586, -12.906278846973237
587, -4.771744731489434
588, 11.356010593455721
589, 23.49077653941231
590, 16.403185164314436
591, 0.11089620286793433
592, -9.077500012271685
593, -12.41524446111407
594, -11.416619903090577
595, -5.996950770277181
596, 4.4488296153463125
597, 16.890402592121973
598, 16.44893262787582
599, 6.20338022142505
600, 6.792550428267077
601, 17.750630175119568
602, 20.007911840516044
603, 11.912620199104367
604, 5.4482768549237335
605, 3.4089137738001227
606, 0.880231925917542
607, -3.246933764316509
608, -1.0700887814050475
609, 10.226134113474018
610, 19.46823291906003
611, 21.588814012845432
612, 19.499470994545845
613, 14.857956272448973
614, 7.498688996128749
615, -1.9453125851177901
616, -11.042415479199462
617, -17.631509955514957
618, -18.19336781068796
619, -7.922701651799343
620, 10.101113988976067
621, 31.678256209228493
622, 46.74174558356299
623, 39.06122919186919
624, 18.016429529849574
625, 5.030499103556394
626, 0.4990298771253947
627, 1.6080731837196254
628, 7.931943012266856
629, 18.77579031967889
630, 29.747340571665518
631, 26.974148328876254
632, 14.15001610800664
633, 17.50209723976195
634, 34.175210565749694
635, 36.089448823100156
636, 21.125232774170854
637, 7.857075713699487
638, 0.4295462822215086
639, -5.579062837083711
640, -10.761613500966178
641, -4.867270114628809
642, 14.076045391919706
643, 19.178199806501652
644, 2.4535139686649927
645, -5.512968407378594
646, 6.175324240829923
647, 21.811015366288302
648, 32.69279554971126
649, 33.13024161309977
650, 20.13506041187884
651, 5.876854946965977
652, -1.2540938377774182
653, -1.399685240758572
654, 5.849477998057864
655, 18.845363507166894
656, 34.935778521601605
657, 38.464356374721774
658, 13.478619970328054
659, -6.936156661221048
660, 12.77794338451804
661, 44.673775294681036
662, 46.61121302306083
663, 32.43179836601348
664, 24.00439079611442
665, 16.768183576428328
666, 2.2604721526304274
667, -9.382983226481883
668, 0.5855057247649711
669, 17.88559019096556
670, 7.442117236801096
671, -15.958050439748604
672, -16.88358543803224
673, -0.38719720702829363
674, 16.809751019062787
675, 29.079479830147648
676, 22.43649212576929
677, 1.115050405837792
678, -17.429673908329733
679, -28.95649779370342
680, -17.332710207261243
681, 11.831871116184175
682, 26.50980948638653
683, 24.742012193730716
684, 13.560344557906774
685, 0.12486218123603976
686, 7.0152708384434845
687, 32.39185164305536
688, 45.851505502937016
689, 44.54859508261825
690, 36.71783553113937
691, 25.579869862943724
692, 25.52869300468501
693, 37.5632700791939
694, 52.32745770073916
695, 65.89459702134764
696, 59.09069915065811
697, 32.63168867949116
698, 21.18157381486708
699, 31.187518399264263
700, 36.184726942382895
701, 31.36309495220621
702, 22.0179662339101
703, 9.614011435551674
704, -2.782562789858275
705, -14.50296285260265
706, -12.919500436981707
707, 3.3736801865347843
708, 12.104877998571283
709, 7.904709404608184
710, 6.1085847181757345
711, 10.365125323957272
712, 19.11815305187656
713, 30.188184216563513
714, 36.669588004559955
715, 37.015826502786695
716, 36.86345295712226
717, 37.81239043640653
718, 38.95666042756466
719, 39.861889757319204
720, 38.457692104074795
721, 33.74338069948817
722, 20.921300891377086
723, 0.040980736844176135
724, -8.841770901443851
725, -1.4361509135333108
726, 9.529808385450451
727, 20.455879482255114
728, 23.52475651336954
729, 17.140469371708605
730, 8.042224914922826
731, -1.391518742738299
732, -7.316030766477525
733, -9.239597336918905
734, -8.85121809559223
735, -6.801226133427463
736, -5.802404544035198
737, -6.360511731339102
738, -5.6791343327809045
739, -3.1610243391996846
740, -1.7094079737485117
741, -1.9426790026368508
742, -2.705934097039062
743, -3.2440212764040552
744, 1.5687430028601739
745, 12.03210728699787
746, 13.519450353216598
747, 4.31588792690809
748, 1.6701708613441042
749, 7.58661799437823
750, 7.446052208908441
751, -0.22556919880389614
752, -1.4291063767914238
753, 5.184413296074581
754, 9.134580992627889
755, 9.040229194035874
756, 15.153900123075346
757, 26.43429151098144
758, 30.946543222904438
759, 26.21019630452747
760, 9.93526322651087
761, -12.112235354937638
762, -14.543226978944858
763, 2.5452037870009008
764, 21.37896147540232
765, 37.245684475688904
766, 41.89551673812275
767, 34.179446658935376
768, 13.51081143151032
769, -9.387448090256385
770, -1.1302530534430844
771, 32.36203738569111
772, 56.10548038584875
773, 67.23778498846332
774, 66.0471724573049
775, 53.31055226963008
776, 31.168678203161562
777, 8.660400347653194
778, 9.417911318886127
779, 20.624585850098356
780, 9.10446980891993
781, -9.104641570588228
782, -2.0684156786028325
783, 15.896232244975636
784, 15.57886700519839
785, 7.4747672885209795
786, 10.421729703376513
787, 12.967909356754717
788, -0.5688155054945128
789, -10.561268693731108
790, 6.746074851014328
791, 28.23669189581824
792, 26.29559313373329
793, 12.88856376133026
794, -0.8743111770013456
795, -7.042020483422675
796, 0.08609128961961687
797, 14.361217906182901
798, 32.383255517468115
799, 43.88302090400521
800, 43.87256479643111
801, 39.36214393193404
802, 34.08400512287017
803, 33.002536727029565
804, 37.60785934698879
805, 36.19232750773335
806, 25.08339464032042
807, 13.00135265636709
808, 4.719988005393134
809, 7.0567462572521436
810, 20.31932890290682
811, 27.802962861886044
812, 26.120623499490648
813, 16.27527002525494
814, 2.273398795849971
815, 4.810081116746005
816, 21.47315997150963
817, 26.80974609917621
818, 20.700749013300992
819, 13.294357326423324
820, 5.522095023531165
821, -2.0174250387353823
822, -8.158446624714088
823, -8.811993773360427
824, -7.874092163524438
825, -13.407698445549158
826, -17.062138568391674
827, -4.174115225314836
828, 14.918553539948789
829, 24.907524559364447
830, 23.594356398391483
831, 8.78929178163662
832, 1.1093292647219641
833, 15.951739962509237
834, 42.282985603340876
835, 69.8923689211556
836, 82.01041209890127
837, 70.78307738976036
838, 57.39101086708297
839, 50.81682906494598
840, 52.96269253046921
841, 61.74355200186119
842, 49.30296751067635
843, 13.060329328542139
844, -10.475773875227787
845, -16.188295118766746
846, -2.9631033926375494
847, 26.048269090186295
848, 50.945126959341906
849, 63.840457185484865
850, 46.29258553570844
851, 14.322563236689803
852, 14.031982144130325
853, 29.213186149450394
854, 21.99048205898316
855, 4.165888566708418
856, -4.3908030423131095
857, -6.7654526744886425
858, -5.970061895721756
859, 5.075377428384854
860, 32.96316604389813
861, 43.23532019806771
862, 15.7658055578745
863, -7.122092568550215
864, -6.876509406864443
865, -0.2698314616791322
866, 7.522155932068472
867, 19.90784124682432
868, 34.90747407076333
869, 38.378629671170074
870, 31.57259251788264
871, 35.560843110444694
872, 46.77124543724767
873, 40.47904915915433
874, 20.972840768489277
875, 6.747590091609254
876, -1.3178893557760603
877, -5.842510878965186
878, -7.6480319907627745
879, -7.38803664715806
880, -5.574195127723215
881, -2.5740061732703907
882, 6.703588443423996
883, 26.500486658287173
884, 42.51070438550869
885, 47.51381927588727
886, 44.99637082900608
887, 37.312670927671206
888, 35.708411790459195
889, 42.478002446609025
890, 51.17081675405689
891, 57.680074431297726
892, 48.157557997796175
893, 26.22992017035085
894, 10.747982761397452
895, 4.201520496228568
896, 5.529098199071086
897, 6.747868144165295
898, -5.986158460184015
899, -19.565812702788207
900, -17.916038923964607
901, -6.530524096333465
902, 11.012965980267836
903, 28.563879658647693
904, 40.04006073812434
905, 33.40738117494038
906, 7.494510432753032
907, -0.8776309641107218
908, 13.208231588934723
909, 26.536797426407247
910, 33.52149536536126
911, 34.67618277566726
912, 30.209023990099013
913, 20.552525696253724
914, 11.393982748083545
915, 15.002923326385826
916, 18.63556267624199
917, 6.571338681295401
918, -2.0695471276185344
919, 7.419860019363568
920, 21.20549550855776
921, 29.898619278619208
922, 28.141750693039285
923, 14.376732638666908
924, -5.2262171142238
925, -25.842969698006073
926, -16.859313486393603
927, 19.633203972757656
928, 56.107600183036084
929, 80.94723251585538
930, 77.61274257811237
931, 59.52336452464715
932, 49.87201284361663
933, 41.21811407146288
934, 25.56196139075064
935, 10.204851876573684
936, 0.8087492918289172
937, -6.602247027110025
938, -12.743668536121731
939, -3.7827875723946818
940, 19.692343600671393
941, 24.233678911597508
942, 11.061751890840696
943, 8.141025738509597
944, 14.959818740602259
945, 23.744974443371575
946, 29.817815830876043
947, 26.37164119872523
948, 15.100711386629428
949, -2.0427640057355347
950, -9.702630796069116
951, -0.23389331981798023
952, 14.795298936935978
953, 28.9451719468766
954, 26.41255990177342
955, 9.153647355475641
956, 5.746976754658135
957, 13.596643714036873
958, 14.010167374670345
959, 8.856691583870088
960, 3.990632685775381
961, 1.2501544170645502
962, 1.8750030729488572
963, 8.671227359728164
964, 22.377060931569304
965, 22.64186988846086
966, 3.4098505566857966
967, -12.61062568517491
968, -19.765635966247373
969, -10.18450461576731
970, 10.6152786687162
971, 19.732251047970294
972, 17.068718008465112
973, 5.646244006544748
974, -3.689060110194987
975, -0.6567965350391205
976, 7.806612197837694
977, 16.722492364724985
978, 17.54999502507826
979, 8.60948136837078
980, 2.8726559245224053
981, 2.228414232731666
982, 0.7555709139896862
983, -2.4860987298980035
984, -8.037075926234593
985, -15.717251363523246
986, -25.120048448330635
987, -24.81514980517295
988, -4.96385770676352
989, 5.487714333854456
990, -5.314494678396386
991, -9.714143016467006
992, -1.147815419678409
993, 13.67996550241105
994, 33.43930886355429
995, 54.94528078401299
996, 81.68882462688362
997, 111.39746163647487
998, 148.58772909048503
999, 197.53450973827148
1000, 241.83637275018464
1001, 270.1177304564467
1002, 252.85344173954763
1003, 188.29224623779373
1004, 126.19424349665678
1005, 71.99983812620803
1006, 21.305407471029866
1007, -19.821732030843123
1008, -32.061652709395275
1009, -28.737230860171167
1010, -22.827202347331877
1011, -11.310134382953493
1012, 6.657545394593853
1013, 10.294093551164679
1014, -2.650104733304943
1015, -6.526040155144528
1016, 4.160321932629358
1017, 34.8801732250663
1018, 75.56519312227965
1019, 99.04490797880635
1020, 117.84780287586591
1021, 143.56870264790996
1022, 165.78096444798712
1023, 178.3563281860288
1024, 170.45807008656948
1025, 139.51533924471596
1026, 87.01192359268725
1027, 28.4674956144122
1028, 6.297180262999518
1029, 7.138470302671976
1030, 12.781634753145681
1031, 9.09725710845214
1032, -12.87349057673373
1033, -27.68613423128818
1034, -26.71515509094388
1035, -10.648444209012268
1036, 14.97383453163684
1037, 27.010364665905854
1038, 23.479637890296544
1039, 4.514906443740074
1040, -11.473398751298646
1041, -10.114442003231943
1042, -4.681121447342321
1043, -1.3046481565793329
1044, -3.503248309611081
1045, -10.10438878618288
1046, -11.907592911291431
1047, -9.286853058968518
1048, -4.819740974688102
1049, -4.102593068004353
1050, -13.250457184623428
1051, -18.451433120367255
1052, -13.493285049466522
1053, -10.648184609856344
1054, -13.306857136585222
1055, -22.52215263776634
1056, -35.010733907496615
1057, -41.82317442163048
1058, -38.43973628813319
1059, -19.404728877992056
1060, -8.843772845570129
1061, -18.006512168682548
1062, -21.52069283167475
1063, -14.164556527603054
1064, -3.990984422492602
1065, 14.743864339403444
1066, 57.65001304899033
1067, 116.98887359046921
1068, 184.78330630987375
1069, 287.5287746223262
1070, 412.6532498584911
1071, 512.8057719646081
1072, 580.7415951976641
1073, 639.0961747627662
1074, 690.5967738296454
1075, 735.4657141285379
1076, 757.5091138974808
1077, 741.0763612012602
1078, 696.5450574134584
1079, 629.540231021515
1080, 546.8235354466519
1081, 455.960250673008
1082, 378.73019469688234
1083, 297.56348913439933
1084, 178.94049453934485
1085, 82.08062574890118
1086, 29.16501580016211
1087, 4.709599234125108
1088, -0.7352698947452154
1089, -7.315363112708383
1090, -18.201127593867568
1091, -32.42794208183432
1092, -41.66601755409238
1093, -34.89271356348081
1094, -26.61141358837358
1095, -24.59523385442435
1096, -29.47373421085331
1097, -37.645595836419034
1098, -32.35745586963367
1099, -17.537688996392262
1100, -3.683625676983411
1101, 2.3483147924994228
1102, -4.173797510718941
1103, -1.7689146371985771
1104, 14.852542445870768
1105, 26.81496753583997
1106, 26.907054625098226
1107, 4.512082473168903
1108, -16.616360854379764
1109, -11.05609768991053
1110, 13.52808907523331
1111, 51.12910713671681
1112, 64.21767772409976
1113, 48.91405556517839
1114, 19.525084330653044
1115, -6.07065612149654
1116, -3.4082512842628603
1117, 5.721106680592584
1118, 8.012614665060482
1119, 1.7004318288843479
1120, -8.72094740925445
1121, -4.835846612319074
1122, 7.804131072547307
1123, 14.814480840166652
1124, 15.747380973318286
1125, 10.843227285905414
1126, 5.00991085327837
1127, 0.5530344235496614
1128, -2.0824199947342095
1129, -3.341799045570042
1130, -3.973684609033171
1131, -0.49160144779966686
1132, 10.618871948192236
1133, 32.28202714555732
1134, 57.677025904763696
1135, 52.48078271702684
1136, 29.940172270037465
1137, 31.054291975978686
1138, 37.20303697997997
1139, 30.951870114945905
1140, 29.70637128043313
1141, 34.66962628791589
1142, 16.1874740656599
1143, -8.600346670802992
1144, 3.0746633723388186
1145, 22.654478837485158
1146, 22.18772042856631
1147, 16.906662985462162
1148, 13.685520998360744
1149, 20.308973201416165
1150, 30.651643962670278
1151, 32.46878066782347
1152, 22.296142853801257
1153, -1.0962314766829877
1154, -16.86738045057791
1155, -18.398514021514302
1156, -1.0346060251640665
1157, 23.243719295461233
1158, 26.968034316156263
1159, 25.234589235730255
1160, 29.276753234119724
1161, 34.146454053271555
1162, 37.32048814839504
1163, 34.57281537789913
1164, 23.192337203015086
1165, -0.19160933892840148
1166, -14.2108243702437
1167, -9.489402022202967
1168, -6.547799162732645
1169, -7.754305519686795
1170, -5.306273102516798
1171, 0.5841145781869272
1172, 8.951828438629718
1173, 13.707405204854012
1174, 12.719125347887484
1175, 10.916264470844908
1176, 11.385866578537843
1177, 16.87018464266066
1178, 33.102058304569255
1179, 60.752812435003534
1180, 61.39359884164742
1181, 32.13005534142326
1182, 22.446458486416304
1183, 30.705951970488513
1184, 36.664481886929934
1185, 34.162024379512104
1186, 20.22620868846957
1187, 1.7645371030441765
1188, -11.093239962101734
1189, 6.253975427388241
1190, 32.72658804745856
1191, 38.665714358663536
1192, 26.792314630424244
1193, 2.426287119107883
1194, -11.292559945256016
1195, -11.809279115282834
1196, 1.5440263094299098
1197, 9.735573099989551
1198, 0.13126481103222432
1199, -5.055529652364612
1200, -0.5321722823193795
1201, 13.773170189123675
1202, 30.79233148387266
1203, 39.02586271365681
1204, 44.01576207965445
1205, 49.32792692316866
1206, 61.3607694719135
1207, 75.04225590977944
1208, 78.66557932408205
1209, 73.23587091758964
1210, 60.70302495105943
1211, 50.97414396934482
1212, 42.67613541751962
1213, 24.761702301962714
1214, 3.9570482144922607
1215, -15.417840586463626
1216, -13.796344151952098
1217, 11.04678852617576
1218, 36.92050285081132
1219, 53.61734520045411
1220, 51.80444811637312
1221, 43.65675760087379
1222, 36.0311137155245
1223, 32.365417787639444
1224, 26.53111916744183
1225, 4.001875383644574
1226, -15.629936618802958
1227, -20.082198940519675
1228, -8.957036262902193
1229, 12.63874251082575
1230, 26.663350717336925
1231, 22.652163881067963
1232, -5.578919769771801
1233, -13.57814134895034
1234, 3.9481182499596343
1235, 13.81701616796704
1236, 13.499302273561852
1237, 5.003140481671835
1238, -6.279782451317033
1239, -16.368392106179044
1240, -11.19138990018996
1241, 3.613142556842149
1242, 15.638300732725384
1243, 23.910649170588613
1244, 29.287274135052712
1245, 38.52203343010956
1246, 44.768000238853574
1247, 31.77042619633312
1248, 19.179471173408274
1249, 20.60985667414502
1250, 26.190647242834302
1251, 34.49915511272411
1252, 43.28250468945407
1253, 49.14226696021001
1254, 50.86743667939959
1255, 61.437749743422046
1256, 76.35550592326967
1257, 74.47304941012908
1258, 63.8488346355532
1259, 52.98714674033317
1260, 47.9123108753638
1261, 48.227812997142564
1262, 47.68605603077208
1263, 39.7756241400607
1264, 20.319880774975218
1265, 11.07064399723481
1266, 16.338480128352785
1267, 34.484571010533955
1268, 43.89956664911233
1269, 27.262481185264278
1270, 19.523096991938928
1271, 27.944878823977888
1272, 31.88007342399169
1273, 29.928397510314426
1274, 22.47757466486655
1275, 13.502005220451565
1276, 10.90115409403893
1277, 32.00478430779549
1278, 50.4377489716328
1279, 40.550609044466455
1280, 21.771091652390396
1281, 3.0914757439750247
1282, -5.558695895934761
1283, -8.477388561738508
1284, -10.203689410690004
1285, -13.683679927956973
1286, -15.508748346715947
1287, -2.148844911044989
1288, 17.620991842125022
1289, 32.828955665026115
1290, 28.603934545156108
1291, 11.45269753983871
1292, 11.008954098928598
1293, 21.46720595901229
1294, 35.30788874649488
1295, 46.906588588562045
1296, 48.50189469280781
1297, 24.930916642423426
1298, 0.23437088243622384
1299, -9.108875039662053
1300, -5.59310237271643
1301, 4.526105674088285
1302, 9.623382183171316
1303, 17.950542520177805
1304, 30.37979012344863
1305, 30.980734989114353
1306, 20.838059658635075
1307, 6.249239531335434
1308, -6.175433983817129
1309, -14.250645960638167
1310, -15.47688120861767
1311, -11.309666156859976
1312, -3.904880363909342
1313, 2.513600368261905
1314, 9.458611353494234
1315, 26.012162256665306
1316, 30.245867212673147
1317, 3.585840232565033
1318, -12.695989751767229
1319, -11.744668640288182
1320, -0.8361423421895324
1321, 9.07708521135919
1322, 12.035851210432611
1323, 17.98215407613361
1324, 27.312400649411074
1325, 39.09199005554069
1326, 41.27170928223518
1327, 28.227858580836937
1328, 2.434326623384777
1329, -8.951331397790455
1330, 25.526242320785514
1331, 51.344963235907926
1332, 50.58387020146256
1333, 29.665823136967447
1334, 6.999958015720267
1335, -0.5325470828756806
1336, 9.683864259447319
1337, 25.703459443815746
1338, 16.248933692175115
1339, -0.2866255053220357
1340, -10.222767333138108
1341, -0.827848069458696
1342, 12.938607873863248
1343, 6.56054108132912
1344, 0.43997088234709736
1345, 0.4113158628538258
1346, 0.5675314442962645
1347, 1.5339358627350066
1348, 2.9879018923986678
1349, -6.212078866729598
1350, -13.028874507372848
1351, 14.427284519534396
1352, 34.16100529428854
1353, 27.050126558352076
1354, 8.987052428908783
1355, -6.255987619470488
1356, -7.021457058531951
1357, 8.764412757295986
1358, 30.05527168090748
1359, 21.150158092974152
1360, 0.2640522907504419
1361, -14.786286391875365
1362, 2.3846855226966
1363, 32.58362381081611
1364, 38.72494985927915
1365, 38.325377799080115
1366, 36.59749376145942
1367, 29.633476393678393
1368, 29.507487832953757
1369, 39.87045519902313
1370, 20.776415234210845
1371, -5.887064692302829
1372, 6.35250630871883
1373, 10.293729762381417
1374, -3.2751749633735017
1375, -1.633955437912391
1376, 10.667262108295063
1377, 27.558732670902373
1378, 39.43763560539992
1379, 37.81162025355775
1380, 12.440637227278557
1381, -5.296534855767504
1382, -3.491223126739442
1383, 22.815475722016572
1384, 39.527716866050014
1385, 24.266090040787503
1386, 13.190316998393655
1387, 7.275329767150879
1388, -1.7369819074540374
1389, -4.198228712030641
1390, -1.807400163420425
1391, -10.676504794293578
1392, -8.462183541468448
1393, 14.878039904885554
1394, 17.3620654701258
1395, 5.796404838615672
1396, -0.08351753710508092
1397, 0.24100240101574855
1398, 10.348966923017542
1399, 38.74281185189102
1400, 47.83766609000304
1401, 24.56209260824312
1402, 5.368318927916789
1403, -2.60037739654058
1404, 0.666597169072702
1405, 2.8600134945720583
1406, 3.388593078321037
1407, 6.669600142880654
1408, 14.366034530794423
1409, 23.129050773892914
1410, 22.305310232679176
1411, 13.697865546739195
1412, 3.5526057409813347
1413, 17.666754548994504
1414, 34.51497402318773
1415, 22.105755531155637
1416, -0.7459259899339941
1417, -16.37319564005452
1418, 0.2146493033412753
1419, 24.334161043132553
1420, 39.55899686197699
1421, 33.93961008698011
1422, 15.934194702674404
1423, -3.6840630052990946
1424, -5.635183131819758
1425, 3.265797705768591
1426, 10.663214483534603
1427, 22.945521488456052
1428, 35.988222344360565
1429, 39.245773692549164
1430, 26.771006232352647
1431, 3.320089594911906
1432, -5.630293593761962
1433, -4.135404975481379
1434, 2.729502136785186
1435, 7.874334565527988
1436, 6.945034271508348
1437, 0.05449245585759854
1438, 12.527145359261795
1439, 32.44432447495501
1440, 27.657586583301963
1441, 12.291733678624496
1442, -3.56120626654797
1443, -7.763762736117087
1444, 2.5767943143025605
1445, 21.852558941002826
1446, 17.574853969130118
1447, 4.541221865653824
1448, -1.1799620877163761
1449, 4.749880201449059
1450, 10.40524743714218
1451, 0.5215768156169815
1452, -9.117372088785942
1453, -7.540252296649214
1454, 17.320084904007217
1455, 27.46933165897576
1456, 16.70621735567397
1457, 4.153267889654217
1458, -4.578077507745093
1459, -4.4868636502935715
1460, 17.137761155867338
1461, 26.924271539720394
1462, 9.3887470421339
1463, 4.054756263049285
1464, 1.6414508482523615
1465, -9.486100636308038
1466, -12.531211688874919
1467, -7.504607653869925
1468, 2.767176393507725
1469, 25.726067589424474
1470, 48.06320621373902
1471, 44.80102090239211
1472, 24.208443150658923
1473, 3.009552165274499
1474, 11.389675208364906
1475, 16.795030656659947
1476, 8.72434916616794
1477, 3.9346426348308796
1478, 0.979990299471865
1479, 3.441935457721911
1480, 29.42763982891165
1481, 38.49996620340676
1482, 12.41533069949196
1483, 0.0064753262404337875
1484, 1.5649809328913307
1485, 9.36508835310974
1486, 6.808232022776565
1487, 3.0911341884479953
1488, 8.361216371071578
1489, 11.053433353443552
1490, 16.94669796800258
1491, 32.65335211301908
1492, 31.43039841037489
1493, 26.64590578287698
1494, 45.65049193147661
1495, 36.728764519913284
1496, 2.9379722948381186
1497, -20.735845253663456
1498, -24.698918535303847
1499, -11.806213002138747
1500, 5.402291855836211
1501, 20.572526303723407
1502, 24.69455009119679
1503, 5.743097213930923
1504, 2.903661499756936
1505, 20.10781560727878
1506, 22.233026980977456
1507, 29.038306241458713
1508, 42.641432989549
1509, 37.51637515979769
1510, 25.206869461391307
1511, 12.713347081704569
1512, 0.9786952050201307
1513, -7.558823796730394
1514, -10.996784479961889
1515, -7.420584419120587
1516, -1.105516604703098
1517, 8.3919090513225
1518, 32.476305475601066
1519, 42.42775553992033
1520, 25.760360747405457
1521, 8.518937149217663
1522, 0.8413384332370697
1523, 6.137119389476993
1524, 23.480053188761303
1525, 26.96409858778088
1526, 6.652848731055428
1527, -4.200656532547782
1528, -7.527408906338906
1529, -7.43545639713534
1530, -6.346758203133277
1531, -3.3059804350523336
1532, 0.6433283221304009
1533, -3.057849739808262
1534, -5.55100741693991
1535, -2.5995561320614797
1536, -4.68243160506745
1537, -0.380342345147028
1538, 12.915653966656919
1539, 9.784945971617844
1540, 2.703531398126188
1541, 1.6011327381741012
1542, 5.924091771904159
1543, 10.174762842397286
1544, 10.215518021430626
1545, 2.995352707249822
1546, -3.5310379011996247
1547, -5.83032243523121
1548, -5.275824229397131
1549, -7.803243528031317
1550, -10.904008674576517
1551, 2.109773288761062
1552, 24.46740328711735
1553, 44.89086209602033
1554, 45.6422003581813
1555, 30.454515061442407
1556, 6.834121396330829
1557, -11.01653652705295
1558, -16.50647813366095
1559, -17.435450285436218
1560, -32.19419273504013
1561, -23.439744139692948
1562, -0.48180692086111776
1563, -0.39625016184550077
1564, -4.284505211364603
1565, -7.920290380628103
1566, -10.04587240522892
1567, 14.380936512609878
1568, 45.842043626724035
1569, 49.41394834102471
1570, 37.074981754239616
1571, 39.23480217258407
1572, 73.8208038375526
1573, 104.12928380169296
1574, 130.22733929907668
1575, 163.2819672835335
1576, 203.4937098793646
1577, 234.03097431326273
1578, 247.82802865531085
1579, 258.5562078006951
1580, 273.25328665683264
1581, 294.41293876143095
1582, 319.0035068688269
1583, 313.4850781746511
1584, 276.12725991359275
1585, 232.99496321501897
1586, 196.67382867720312
1587, 153.15976060799835
1588, 79.07802725456463
1589, 31.827783374573528
1590, 8.142103389330487
1591, -4.7844862327092414
1592, 5.788626279247865
1593, 11.913753443953055
1594, -4.515018106135358
1595, -5.304658221321688
1596, -0.24928546490514236
1597, 0.7292051991485096
1598, -5.787554918856813
1599, -10.510253383418103
1600, -12.496069922570086
1601, -19.540559889775068
1602, -30.46457227109113
1603, -33.34754606875322
1604, -10.221015178760354
1605, 21.86731101002715
1606, 40.69233615340522
1607, 27.96959661936239
1608, 1.6304014109227865
1609, -7.467420876342203
1610, 10.455792796547712
1611, 18.0191629830731
1612, 31.223221317066418
1613, 45.41800116060358
1614, 24.868394094220548
1615, 21.97590138218311
1616, 29.28843605844895
1617, 8.478909690124055
1618, 17.356144928969343
1619, 28.444017610029505
1620, 6.736881267379204
1621, -1.601744252381195
1622, -2.438116881505948
1623, 0.16699013755214764
1624, 18.522556336468824
1625, 34.000081008797
1626, 40.68707191850535
1627, 43.6978914097715
1628, 37.49083887106622
1629, 20.905517207153707
1630, -2.5038915225511573
1631, -14.94529031901061
1632, -12.97035577202655
1633, 1.3491234547561817
1634, 16.275944018771725
1635, 17.156677206004815
1636, 13.817205751135361
1637, 38.15406061746762
1638, 38.45078656058149
1639, 18.664687957623528
1640, 3.600236861306712
1641, -1.7126748495804804
1642, 4.1274770165923655
1643, 14.379702419918885
1644, 2.6311219479662213
1645, -8.966097832942296
1646, -3.7784130839859245
1647, 26.751396319242986
1648, 21.856465548119104
1649, 0.7147389313806798
1650, -4.3157129669205005
##END=



