##NAMES=
##LOCALITY=
##RRUFFID=
##CHEMISTRY=
320, -33.77648700084683
321, -3.332126242597951
322, 25.53683902334342
323, 36.83855409774151
324, 36.079959223252445
325, 32.928266408380296
326, 27.79546008773832
327, 21.57641047945799
328, 14.678909989972453
329, 11.66309436654592
330, 13.102267866028342
331, 23.696621966222665
332, 47.00521158709307
333, 68.86947484065058
334, 74.3716181241798
335, 68.02362446332518
336, 62.39734402080285
337, 56.95537035728012
338, 43.86762728130634
339, 22.843015301530613
340, 16.273979704479643
341, 31.13275157895987
342, 51.95015248537129
343, 61.66315679087165
344, 62.95103761581049
345, 60.77466246232143
346, 55.09657587269794
347, 45.33986325600563
348, 31.608716108274166
349, 15.425517968709755
350, -1.0552565965153917
351, -10.216946965276293
352, -8.204169606826326
353, 0.44514845727098873
354, 11.231541729730452
355, 25.212203923765628
356, 41.22149776137667
357, 56.238265036596204
358, 55.004778961078046
359, 37.25176395956805
360, 26.954481256279905
361, 33.986285655328174
362, 41.238938781456454
363, 39.65733356239434
364, 33.339815790895955
365, 27.896970250186314
366, 20.02068645649979
367, 0.37786845449682005
368, -26.97799791561465
369, -37.98388794366565
370, -30.04762523903173
371, -12.79409138279334
372, 11.858319083398783
373, 37.12929715297105
374, 55.45525185117822
375, 64.77052124665715
376, 62.03746225660598
377, 50.880674526642
378, 41.987018191116476
379, 35.186382840455735
380, 25.283512052559672
381, 11.683734335685585
382, -0.0713539000153105
383, -9.584700049180356
384, -10.498989950417126
385, 2.044351478512908
386, 19.966664112684157
387, 29.87434357454913
388, 30.682882607598003
389, 19.662206481556495
390, -1.2233979909333357
391, -20.407920616457886
392, -36.952045206398
393, -38.22654115919704
394, -20.236841266955707
395, -1.742844077339214
396, 6.841184134583273
397, 9.810940645980736
398, 12.152685521135936
399, 12.031900779282296
400, 5.1305051200206435
401, -5.331114970138515
402, -7.469101709561983
403, -1.1546501010088832
404, 2.493930784071381
405, 1.2532189988196478
406, 6.311522923037046
407, 23.530695483413183
408, 46.753842701289614
409, 66.45267801184855
410, 80.24993058581276
411, 83.90371760665948
412, 81.35634791866141
413, 85.91349354326667
414, 105.98361670666236
415, 125.02317038514775
416, 141.78721730045982
417, 158.95336107397452
418, 177.3500415257531
419, 190.93192807474406
420, 195.94030511907295
421, 200.96444590226565
422, 216.33036797102432
423, 233.04626851427201
424, 231.09047316988654
425, 214.14969668313643
426, 200.05635554818582
427, 190.14080206335893
428, 180.03092996623673
429, 168.72648651003874
430, 155.04502683590363
431, 138.5461878916667
432, 122.27697270219869
433, 108.37842318051662
434, 94.75087929386882
435, 78.6038624595194
436, 62.746012996335594
437, 60.155008541054485
438, 60.49168396722507
439, 45.407284162993165
440, 16.158320575622383
441, 1.2030332111698954
442, 3.9432528902998456
443, 5.1897399653335015
444, -2.3859881818452777
445, -7.726798030335885
446, -3.3534952875388626
447, 4.987459128926275
448, 10.417047865786117
449, 12.613122354083316
450, 12.011897768940798
451, 10.135787734836413
452, 13.668113925687976
453, 20.492198980599824
454, 19.34017471973948
455, 9.498392712777786
456, 12.721849713979282
457, 35.69405692717919
458, 50.13812213982692
459, 40.90169755540228
460, 25.241535172358454
461, 20.138582348606178
462, 16.29712347881741
463, -2.323588342281255
464, -26.225820233486957
465, -28.89469929261395
466, -13.677193831323166
467, -3.1433977777460314
468, 1.1065645144553855
469, 4.884198367849422
470, 9.663785328551057
471, 10.723145493119773
472, 6.457612707935368
473, 6.95365468728869
474, 18.52423538149651
475, 27.165868762534046
476, 17.608300808586137
477, -1.9838759532212862
478, -16.111823596066642
479, -23.990114472391724
480, -20.75581155256532
481, -6.408431450059652
482, 16.708799199189343
483, 47.801136324826075
484, 61.18236182604778
485, 52.05910960142137
486, 43.0100521259119
487, 42.92643626994777
488, 46.4487518616279
489, 50.1695575219137
490, 51.87461370665824
491, 49.217415905704
492, 41.0014298833803
493, 25.151266096085237
494, 4.772834903986222
495, -11.045875640141276
496, -22.065046794851696
497, -23.580194249139822
498, -15.90593976195214
499, -4.404593730350825
500, 9.755701568830773
501, 11.907136690075276
502, -2.212292350474854
503, -12.927081355534938
504, -11.47162231641596
505, -4.824700784455672
506, 2.1399781902891846
507, 14.207521905941576
508, 37.75114521406067
509, 67.29004577357773
510, 83.5951446873978
511, 93.66647644077693
512, 129.11919360890988
513, 176.28029495228293
514, 208.2092966176806
515, 223.33995223950296
516, 235.42180348534748
517, 246.69137293062522
518, 249.00979905865097
519, 240.11248823728783
520, 229.90589787706267
521, 223.05409307898572
522, 211.94849814805093
523, 191.12529258723407
524, 172.2174907619401
525, 168.27610578552412
526, 167.55219944924374
527, 149.97354325478045
528, 121.45263139475628
529, 97.76123841953631
530, 77.62857587510825
531, 53.46135155720276
532, 31.060107556624644
533, 14.803501351479099
534, 4.261035138324587
535, -0.175773623049281
536, 0.8890054297626193
537, -0.6548870319911657
538, -7.5809334705991205
539, -10.739200423943657
540, -5.497223156865402
541, 0.9345968306406576
542, 3.4867938512952605
543, 8.84148861680751
544, 24.65798786952473
545, 42.192859894717
546, 48.66580284048632
547, 46.88005757775136
548, 43.74959693896744
549, 41.55981433392844
550, 46.9070809355635
551, 56.834604678619144
552, 54.93791822262119
553, 40.749698320028074
554, 25.761996823042864
555, 12.190775415191638
556, 1.2149132531194482
557, -8.034452766514733
558, -11.75803395683306
559, -8.612368532278197
560, -3.342146728980879
561, 1.8606577311666115
562, 7.626546286282974
563, 13.851910053860593
564, 16.71634453479055
565, 12.09976076118528
566, 1.948009069694308
567, -10.585314852031843
568, -21.03451329183008
569, -18.581196771710893
570, -6.447276202982721
571, 5.702878006553874
572, 16.46199062471169
573, 17.68680146524366
574, 11.119906742545027
575, 10.094643209054084
576, 15.174560920650947
577, 15.65301628474208
578, 9.966350385399892
579, 5.670547709200946
580, 5.1269535408446245
581, 1.845540675058146
582, -6.484720288702192
583, -4.387797085320926
584, 16.327357809282148
585, 35.87166036945746
586, 40.76495173613603
587, 35.32534601005136
588, 23.428111793879907
589, 8.64207125912344
590, -3.8076592389543293
591, -11.808702018240183
592, -10.73742456673881
593, -3.5607114794984227
594, 3.783767020002415
595, 11.037098187027368
596, 15.690180378637706
597, 18.714214078074292
598, 23.975415691831586
599, 29.616626498450387
600, 25.51875604673387
601, 12.608323722566638
602, 4.205431061925992
603, 2.291154691254633
604, 0.9889281077648775
605, -0.8342035129489886
606, -0.38375298259052215
607, 2.782562465483352
608, 0.9824175266039674
609, -7.9469172780382
610, -10.220513727605066
611, 0.31280744288596907
612, 9.363588480688122
613, 8.197993137226149
614, 2.7807944319920352
615, -2.6106107638779577
616, -7.0961628215727615
617, -10.08635620536461
618, -9.574325982272057
619, -2.82634271157076
620, 4.50023900170163
621, 3.446275843193689
622, -0.046663694059134286
623, 4.867088823487393
624, 12.207448928937083
625, 8.28314563531967
626, -1.3834125191742714
627, -0.7718025761314493
628, 6.485592556768097
629, 6.155133524275698
630, 2.5875638148836515
631, 17.41876386444801
632, 44.70378163860187
633, 45.93034571717908
634, 21.314351649340097
635, 2.4344662702333153
636, -5.844827155065104
637, -8.742378145828297
638, -7.271197606279202
639, 0.24638258262348245
640, 14.368616487370673
641, 29.751825693321734
642, 42.51421313717947
643, 45.12303255046845
644, 35.61936787178092
645, 27.443312646960294
646, 25.729762867563295
647, 21.601955506287595
648, 11.134396592879966
649, 8.060862020474815
650, 18.851674688369712
651, 28.509611993728868
652, 27.976948297580748
653, 24.33502584996495
654, 22.86222549622198
655, 17.226201806534846
656, 1.9128935643238947
657, -9.389042103346583
658, -4.059749568196821
659, 9.566073765567126
660, 22.34372088434702
661, 29.85146615460235
662, 27.393106126959538
663, 16.103788626524874
664, -2.2109530427296704
665, -16.018800253096742
666, -6.075680222626943
667, 15.993258642066394
668, 25.064888264869296
669, 23.3654128294329
670, 17.362045686990314
671, 10.023091008828487
672, 9.094692920408306
673, 13.17092479189887
674, 16.890636932216694
675, 18.676603981279186
676, 14.521393080845883
677, 5.250701688903064
678, -4.935339455538269
679, -12.34934241420251
680, -1.5284653065018574
681, 21.898033953800223
682, 24.983683155315703
683, 9.988554902709438
684, 2.2335458359530094
685, 3.248270587472689
686, 5.021659234997969
687, 7.26933960504266
688, 13.37691953958165
689, 20.91901480064007
690, 17.63550677310741
691, 4.711354117040173
692, 1.8454818837581115
693, 10.61224170515652
694, 22.371574003574096
695, 32.83413317187296
696, 31.424941304499043
697, 17.729737207865583
698, 4.631740341030309
699, -4.275603111403143
700, -6.3769845627703035
701, -1.6111284462413096
702, 6.029009662897806
703, 15.113203715052805
704, 14.294388172390427
705, 2.8965495000775263
706, 0.6441435639853808
707, 11.014315384817564
708, 21.729129773749264
709, 28.616055107454486
710, 36.84232956870801
711, 47.01445830098692
712, 49.80590731937809
713, 43.101403859601305
714, 33.16028632784128
715, 21.928599391903845
716, 10.975558803732383
717, 2.1545182142153863
718, -1.7684934595044979
719, 0.24909483658211684
720, 12.714086431475152
721, 36.38295368823765
722, 46.46218794737524
723, 36.80426805627758
724, 21.846674356140284
725, 6.215851121273772
726, -7.395635353331272
727, -19.029145912842978
728, -20.967130752173944
729, -11.668772268651082
730, -3.1876458367960367
731, 1.6824845965657005
732, 7.656776609586814
733, 15.295530903094914
734, 17.786604302803426
735, 13.694017347664158
736, 10.138244973595647
737, 8.638276815911013
738, 2.7061102725865567
739, -7.821015347950379
740, -8.282617628537992
741, 3.867301529746328
742, 11.160965815561212
743, 9.554090821785394
744, 12.70346213690118
745, 22.48274800778745
746, 23.108115030187037
747, 12.015946443076245
748, 1.346197228263918
749, -5.907726697363614
750, -10.649554300457567
751, -12.390928340843857
752, -3.4232083370852706
753, 16.093125798481196
754, 26.43498347410332
755, 24.841597363709297
756, 19.939894289968834
757, 13.247702982689589
758, 4.11230889777471
759, -5.4742428521904
760, -6.604061773991816
761, -0.6684387326931756
762, -2.4936418532206517
763, -10.077888510725643
764, -2.1069358342565465
765, 18.198441071713205
766, 19.344059999533783
767, 3.7401976825904057
768, -2.217170071147848
769, 1.1341350841057647
770, 4.3615885947128845
771, 8.838138018881182
772, 21.87378516502031
773, 36.162098657820025
774, 29.813194558600117
775, 8.59123951732181
776, -5.846804377942135
777, -11.45909085844869
778, -3.128117756881693
779, 13.574462927745117
780, 23.588255947887774
781, 26.131842876672636
782, 20.850499863959158
783, 12.321033870828614
784, 10.189882693948675
785, 14.93668217056711
786, 27.867289414690276
787, 41.828908428190516
788, 48.705893544066384
789, 46.177661671840724
790, 31.421637597391964
791, 16.55969703761002
792, 16.356578060345782
793, 15.98271700845089
794, 3.294100932929723
795, -5.143260694104356
796, 2.554511256564183
797, 9.420004573301412
798, 3.335620831887354
799, -1.467534970676752
800, 2.382300249839318
801, 4.394237546201111
802, 0.10585198479566316
803, 9.365459277740229
804, 40.048181386675424
805, 58.80214647162029
806, 54.598790270819336
807, 40.035032986495935
808, 20.216943509360135
809, 9.135905306203313
810, 9.754403554144119
811, 29.524914824899497
812, 62.43052343757972
813, 64.49217800584029
814, 35.09663098080273
815, 13.92598486022871
816, 6.3850006823067815
817, 3.5531638849233786
818, 5.690698325540325
819, 18.432456806990558
820, 32.174827149228804
821, 18.570504074789824
822, -10.25076005484516
823, -20.929058937578702
824, -18.76890350269332
825, -15.262283267121347
826, -9.19340666196058
827, 2.015542391594863
828, 14.503253338712966
829, 21.415846326562132
830, 19.829850237974824
831, 6.73246880595525
832, -3.552856777496345
833, -0.9054462649019115
834, 3.3815631640500214
835, 2.382655260626052
836, 4.96550730762192
837, 15.540881124699808
838, 21.18735334260873
839, 17.97668036237792
840, 24.641022950908336
841, 44.365673174697804
842, 45.91931086554814
843, 24.868501781805207
844, 9.213944985719536
845, 4.153830969768023
846, 1.2082991258275797
847, -2.1265047494607643
848, -10.34407464463311
849, -18.98338452523967
850, -9.958908578573755
851, 10.38603997768223
852, 21.745543390644343
853, 26.135074545555653
854, 31.81590414910079
855, 32.26430567214538
856, 17.21849466018648
857, 6.062065710883871
858, 21.67419672853248
859, 34.63137982684566
860, 20.85713647920602
861, 1.561063996194207
862, -9.653166909879474
863, -12.531517456163783
864, -7.221238915642971
865, -2.104393419365806
866, 0.1197630976776054
867, -0.15280483160950098
868, -2.352720799646704
869, -2.6965652235048765
870, -0.08983916825582128
871, 7.423561082910965
872, 16.792137199374338
873, 15.59313615168412
874, 5.61820664897914
875, -4.286708119434479
876, -9.4277466827034
877, 0.3621283985003174
878, 16.850125146994287
879, 25.65556502959498
880, 29.787995258339834
881, 32.64516868129431
882, 36.850412284786216
883, 44.195156558975214
884, 46.21267358740988
885, 38.575992945709004
886, 26.619558445731855
887, 13.138559189958869
888, 7.429585429715189
889, 10.109024106376637
890, 13.662824222245035
891, 14.236985505809571
892, 5.489977790860394
893, -7.411573545995452
894, -6.971414416996595
895, 6.398615440577487
896, 29.085225387596438
897, 46.40958911513917
898, 34.544381450728
899, 10.573879490947547
900, -3.5498636682559663
901, -6.543409930894995
902, 3.259217228252055
903, 19.11722721854767
904, 35.94809964921842
905, 44.11148414049876
906, 40.168658345351105
907, 26.91767711911325
908, 6.765810953313121
909, -8.924711414207195
910, -17.522907099899385
911, -10.17243254289042
912, 9.965409415670365
913, 30.576650725040054
914, 46.62695402029203
915, 51.93639250605156
916, 42.266082587893834
917, 12.26040454707254
918, -12.150193132932145
919, -12.498208543067449
920, -1.1622909843090383
921, 15.789679512934526
922, 35.850042197514995
923, 54.17231978899781
924, 54.44006325940427
925, 36.17181797507055
926, 20.803530529145064
927, 11.592701613945792
928, 8.845755826949244
929, 9.73539827460354
930, 8.22673189411853
931, 9.004472798914321
932, 20.51628617732058
933, 30.01229336677261
934, 25.16146353383374
935, 16.197881403772044
936, 9.509946128717274
937, -0.9789743983146764
938, -16.763329528660506
939, -11.551412474399513
940, 16.25194789035595
941, 26.92850505881961
942, 19.663316709473293
943, 18.16778697913378
944, 19.44764221555306
945, 10.516893618161703
946, -0.5308040351164891
947, -0.2010151211761695
948, 2.888468666933477
949, 0.8050430602734195
950, 2.006608094632611
951, 11.182735257410059
952, 19.073776198481937
953, 22.095122747407913
954, 18.26971071211301
955, 8.313050487214241
956, -1.1598151635098475
957, -6.45592375598153
958, 3.555011279559949
959, 23.586984557832693
960, 39.9262519168542
961, 45.324696750242765
962, 31.948339287201634
963, 9.494575989031546
964, -13.780391367196898
965, -22.48371440414121
966, -11.938536372987073
967, 2.107915234551001
968, 16.29965340495255
969, 27.581142012641067
970, 31.674377629539777
971, 16.59161376463817
972, -3.0474247464971995
973, 1.5799491701336592
974, 11.27134401312378
975, 3.5697351078197244
976, -3.002993494143084
977, 1.3870982042053583
978, -2.1212564970855965
979, -17.255781619759546
980, -12.73675529596403
981, 10.583423251097884
982, 15.050258150628906
983, 4.65053092974631
984, 2.8064021346135632
985, 7.820891649417717
986, 15.952643249217545
987, 24.036639943211412
988, 29.99414525002794
989, 31.718247510790206
990, 28.2935945269046
991, 21.241846697941583
992, 12.02596920193264
993, 6.552248797172979
994, 4.943451860922323
995, 2.273306428378419
996, -0.4931598473194754
997, -0.6682033098632019
998, 1.4651230954214043
999, 5.6510023962009654
1000, 5.116010172345341
1001, -2.270772966068762
1002, -1.6686522689142294
1003, 9.966964817012922
1004, 20.706622389275253
1005, 27.999011282273386
1006, 34.47557425866853
1007, 35.7022225416913
1008, 22.660448671420454
1009, 5.126474136275647
1010, -5.742808831231741
1011, -5.648320863715526
1012, 7.696923047577002
1013, 25.508492118038703
1014, 42.66894147184121
1015, 52.149604544935755
1016, 51.02012356582418
1017, 33.68561158947978
1018, 9.392701505586956
1019, -3.929692267374776
1020, -8.611255044953396
1021, -6.439824152337678
1022, -0.9839910295377194
1023, 5.972559060857748
1024, 10.099472170706576
1025, 10.986161578769497
1026, 16.030350733349223
1027, 21.564499340855036
1028, 15.578632839615238
1029, 5.8436532054429335
1030, 4.500521778612892
1031, 8.14759809642237
1032, 14.707219289757631
1033, 21.19024452535632
1034, 25.04467353019936
1035, 14.101224725311113
1036, -5.70461971313307
1037, -6.3495634419005
1038, 5.214107035612869
1039, 13.12775724700532
1040, 11.392746952447851
1041, -3.9862804191325267
1042, -13.02408358946559
1043, -8.011809578285465
1044, 3.294800341136579
1045, 18.152359610532585
1046, 28.294247612707295
1047, 27.04804555026567
1048, 1.8039951127466338
1049, -19.19345516186695
1050, -7.689974890360645
1051, -2.652803675220639
1052, -21.146725670005253
1053, -21.712827078911687
1054, -1.1304942280157775
1055, 1.8987483997761956
1056, -7.998531413264573
1057, -9.160945389387962
1058, -12.466887722242973
1059, -31.575232651040096
1060, -43.71457779733828
1061, -37.36625127938805
1062, -24.69983979258177
1063, -11.877329047607418
1064, -15.813451279211222
1065, -25.686742678374685
1066, -10.6980299223369
1067, 16.60301613250067
1068, 42.00109585926202
1069, 91.89078457609776
1070, 180.24242675918867
1071, 276.9536143030282
1072, 360.8322761033105
1073, 462.6800121985452
1074, 569.6726751914139
1075, 647.2545788257103
1076, 700.762635261095
1077, 736.2170204202457
1078, 743.4340968709321
1079, 719.730012517919
1080, 681.814929186422
1081, 631.5848226339249
1082, 562.5358233602219
1083, 480.99138079294426
1084, 398.8818040515389
1085, 319.6830536095704
1086, 245.25883552328105
1087, 163.91902572536674
1088, 91.140380439826
1089, 39.704795504881076
1090, 6.7863073047510625
1091, -13.671599291480561
1092, -23.550825927809
1093, -23.709432160196684
1094, -28.736497724341916
1095, -44.42159446026881
1096, -42.989487434347666
1097, -23.823723925518152
1098, -14.40092091374936
1099, -16.1805733495994
1100, -27.906947932497587
1101, -33.99230097681766
1102, -22.00472103527636
1103, -3.6964242489179924
1104, 14.827927295770223
1105, 15.611129829598667
1106, 0.9145981653687159
1107, -15.45926868492279
1108, -18.411284801552938
1109, 9.320078496446513
1110, 30.81169478062202
1111, 28.098973502935223
1112, 24.67365821128078
1113, 23.7985634072852
1114, 18.69915280665282
1115, 14.682444934884188
1116, 20.41204562473922
1117, 17.313230006904178
1118, -3.484505208102746
1119, -9.087502632513406
1120, 2.5572123853153244
1121, 4.459888703448087
1122, 0.9283896341567015
1123, 4.860416725988671
1124, 10.651581172421174
1125, 13.153063322570688
1126, 13.858065907990749
1127, 13.529736294690338
1128, 13.482232852420111
1129, 13.928837923557694
1130, 14.947895441676792
1131, 15.507097823758613
1132, 14.463855846640854
1133, 7.367127427974992
1134, -4.151479570549782
1135, -7.7822980467440175
1136, -2.137012403145036
1137, 12.813095209832227
1138, 30.373428174615583
1139, 41.79437068547804
1140, 46.64914811083054
1141, 44.6192021372035
1142, 34.842996018750455
1143, 21.3651288853207
1144, 13.618027539078412
1145, 9.569211795603223
1146, 5.665069499970741
1147, 6.051252382880648
1148, 11.2545076616816
1149, 14.345993205030027
1150, 13.141704014373772
1151, 4.942672220250643
1152, -2.5588798304947886
1153, -4.190051331157065
1154, -3.5267894230819365
1155, -1.251622296198093
1156, 4.872406823589699
1157, 8.32414681821865
1158, -4.09305197917638
1159, -11.741631414743097
1160, -1.35879434839444
1161, 6.7589844574713425
1162, 7.235934577283842
1163, 3.5250274953209555
1164, -1.6520511828803137
1165, -4.635005576242293
1166, -6.165925213813807
1167, -6.270549786519496
1168, -0.980614579286339
1169, 6.753320788458041
1170, 2.601236174002679
1171, 2.3806996553612407
1172, 26.242604953427417
1173, 37.08380304216507
1174, 21.475158397493033
1175, 7.2487689415556815
1176, -0.8515270917914677
1177, -6.341578539505917
1178, 3.9943841851022626
1179, 41.252590381367554
1180, 58.58765657616277
1181, 47.478087031612176
1182, 44.484009120687006
1183, 46.94060315973138
1184, 42.07298359805509
1185, 38.88366629923712
1186, 41.16767939324336
1187, 29.18920527326236
1188, 8.661512127447622
1189, 13.497243735185748
1190, 27.52180901648535
1191, 27.329479680312488
1192, 23.29853371405534
1193, 17.486045382922384
1194, -3.2323326072682903
1195, -24.64170404105562
1196, -15.419175770883157
1197, -2.1557886007490197
1198, -1.4059990466912495
1199, 13.256904553969434
1200, 39.97320150711221
1201, 43.00555063772117
1202, 34.540039936799076
1203, 32.75724943322302
1204, 36.26102936369489
1205, 43.30813561626974
1206, 47.807943397521285
1207, 48.92584985389658
1208, 46.74820878190258
1209, 35.02753100339123
1210, 12.096907377909702
1211, 1.9139582762331884
1212, 3.3022221872051887
1213, -0.17309481011625394
1214, -2.7185072568381656
1215, 2.6746656011628147
1216, 13.074177207382945
1217, 24.32779968447312
1218, 24.99353161024601
1219, 19.94025765381957
1220, 18.67307505761528
1221, 18.210700124945106
1222, 16.772493243731788
1223, 13.133963236789896
1224, 6.529057591444598
1225, -3.53751795161088
1226, -11.61426834428812
1227, -14.212851182501709
1228, -15.2202830017618
1229, -12.175087068654648
1230, 5.451168597032392
1231, 17.224635549104278
1232, 3.2467575296673203
1233, -1.6128149267005938
1234, 6.762359946073502
1235, 1.424330803295561
1236, -5.632075033301135
1237, 3.27194075954867
1238, 4.87399153588558
1239, -6.046481014757774
1240, -2.3541865155348205
1241, 9.38225101644366
1242, 11.370261461436257
1243, 7.919601123071516
1244, 5.056171652375724
1245, 20.112042063872195
1246, 42.48407688518637
1247, 45.24426456405354
1248, 40.705513424954916
1249, 36.5653271411411
1250, 26.914743221770095
1251, 14.25903753595776
1252, 9.081293943250785
1253, 6.113653677257844
1254, 1.81843357897651
1255, 1.9084569357182772
1256, 10.506595843965442
1257, 35.540533050010254
1258, 53.30065623858536
1259, 46.06265265617003
1260, 36.96974335618734
1261, 30.851634254529472
1262, 22.901358501881987
1263, 23.67290381562634
1264, 39.55712662852375
1265, 45.55954219916566
1266, 40.104726634045164
1267, 39.95747682378169
1268, 43.49135454528232
1269, 47.73547901869824
1270, 51.97363391727504
1271, 52.10581511578448
1272, 35.237895294794725
1273, 14.537537964181865
1274, 5.57824509664988
1275, 0.43188691057048345
1276, -0.28280106449392406
1277, 14.512904899524074
1278, 33.8427403347232
1279, 42.43166144759107
1280, 36.96831006857565
1281, 18.670967097008088
1282, -5.263550976053921
1283, -20.9156687346931
1284, -17.00241354514992
1285, 0.036829813257099886
1286, 23.549659700834127
1287, 34.39789242694542
1288, 33.18887225504386
1289, 23.50660190636154
1290, 25.303522798129052
1291, 33.6142201617381
1292, 20.52005726536072
1293, 9.040041533763997
1294, 16.39784820185878
1295, 15.345702495718342
1296, 9.696738335585906
1297, 24.024782723989574
1298, 24.56598628249185
1299, -4.14918359043395
1300, -9.180647506816058
1301, 0.9836273900546075
1302, -9.893471084154498
1303, -14.865522084527129
1304, -2.491724175942636
1305, 2.342529536359052
1306, 3.1289988175194594
1307, 11.34370489942421
1308, 8.458450519368853
1309, -7.430905673403231
1310, -7.292471117410514
1311, 0.41811207541877593
1312, 1.044658650479505
1313, 3.41556544107425
1314, 8.790768152979126
1315, 9.209306977790675
1316, 7.225595438943856
1317, 5.972419849468224
1318, 5.228337731320607
1319, 2.5202335802950984
1320, -8.148462571257824
1321, -11.59050812913074
1322, 0.08678085205474417
1323, 2.330988285507374
1324, -0.4281489215736656
1325, 9.002634941747601
1326, 11.351357719741372
1327, 1.4299263050847912
1328, 3.2569766850051565
1329, 15.444722529905448
1330, 30.630230330390532
1331, 38.77098426238581
1332, 37.451004395415566
1333, 30.509420272621355
1334, 19.07090720194492
1335, 5.752421605309337
1336, 8.308073917491583
1337, 19.77490666577978
1338, 14.263370661260069
1339, 0.4664033141593791
1340, -13.961569774261989
1341, -19.117840081326904
1342, -14.644256337688148
1343, -2.177493771623631
1344, 3.299148537518249
1345, -0.10267718439672535
1346, -1.0073027024241128
1347, 9.978230206808803
1348, 38.178863695653035
1349, 56.616934529633454
1350, 59.815772822363215
1351, 48.780929437495615
1352, 31.967480497311044
1353, 15.469829710682916
1354, 9.100130886507031
1355, 4.919494377927549
1356, -6.026659672750611
1357, -7.140107868878204
1358, 1.781115681211304
1359, 8.425695128885309
1360, 15.559852820743345
1361, 22.058332777135092
1362, 15.483089668118737
1363, 8.993388686301842
1364, 24.45643356128403
1365, 33.18060017916332
1366, 29.845507622618243
1367, 29.4948554601292
1368, 17.11412735031672
1369, -13.146988117180172
1370, -18.11351345228286
1371, -7.10044166395619
1372, -7.0977711132832155
1373, 0.00833716291208475
1374, 16.738354515154697
1375, 24.07552010137124
1376, 25.51642666022508
1377, 25.1237705909125
1378, 22.416877816752276
1379, 17.544539643548887
1380, 11.229501756944046
1381, 11.017569862934124
1382, 14.598650222496417
1383, 4.560938876009004
1384, 3.1073378672704166
1385, 24.126115922230383
1386, 37.907682887803276
1387, 43.5809309083852
1388, 47.57840673279861
1389, 27.761155925364164
1390, -8.733086098268814
1391, -15.924283026114153
1392, -5.823825257077715
1393, 10.25475040788524
1394, 21.270433713076727
1395, 23.8744678386779
1396, 18.140961423408044
1397, 9.705274415125587
1398, 4.847589244082883
1399, 11.72407268627012
1400, 14.120223785741928
1401, 8.123460881004121
1402, 18.814453248145583
1403, 29.2370112760982
1404, 21.69199564177552
1405, 20.401895884286205
1406, 21.896168806973492
1407, 9.13308059511428
1408, 4.006949288884243
1409, 10.991918208213065
1410, 17.136762556908252
1411, 23.554450272775284
1412, 29.69583538565894
1413, 17.884020613396842
1414, -1.4454561174852643
1415, -10.205058016964813
1416, -2.654099017747285
1417, 17.237344710422803
1418, 34.644804381098766
1419, 40.30173595971246
1420, 30.65966826799422
1421, 8.156511715697434
1422, -7.171125224599564
1423, -3.109370255155227
1424, 11.663839869321691
1425, 25.973504160122957
1426, 24.195219587594238
1427, 13.849738520474602
1428, 5.40296610341602
1429, 16.79519110036199
1430, 28.3500006463687
1431, 30.062132079473486
1432, 18.84264306730438
1433, 5.115269595281006
1434, -2.4623513286715024
1435, -2.2907651985356097
1436, -4.068121303299904
1437, -16.84392941079568
1438, -15.139493981402666
1439, -2.794379679692156
1440, 2.5053662162613364
1441, 2.985475439419133
1442, -0.6267402394946657
1443, -8.618471666698042
1444, -6.591045433263844
1445, 9.375516742315085
1446, 22.43303584307978
1447, 32.88144552096492
1448, 42.37495593726953
1449, 45.37009179441702
1450, 39.28779490281522
1451, 23.08646153736572
1452, 6.228169579498626
1453, -5.587586841200391
1454, -8.80395086966746
1455, -5.418138961483237
1456, 1.108993893711613
1457, 3.602857720191423
1458, 5.324818902668085
1459, 8.562682963746283
1460, 14.24259295807542
1461, 12.169131514857327
1462, 0.47730329684327444
1463, 3.9144356278507075
1464, 15.129207094280446
1465, 22.744298470380727
1466, 22.3504097045693
1467, 16.159558345450932
1468, 9.414874392734873
1469, 15.477169667018643
1470, 23.123035597517173
1471, 10.645123864910602
1472, 2.866624879080973
1473, 5.080354067134067
1474, 9.643635094957062
1475, 12.364277251635485
1476, 9.317598055845792
1477, -5.062720695948428
1478, -1.8364328136317454
1479, 24.175058280633948
1480, 29.286540543623232
1481, 27.382566525515813
1482, 29.419479779498488
1483, 28.8350356146384
1484, 35.77495489776311
1485, 52.80382776232818
1486, 39.42437307379396
1487, 12.439121003245418
1488, -2.0345013028659196
1489, -9.467516202037132
1490, -6.015312378543058
1491, 12.320776295249743
1492, 13.147115553364983
1493, 2.944357829587716
1494, 3.870152344492908
1495, 0.47282556482696236
1496, -5.782136789816832
1497, -3.719077822939653
1498, 4.763389080268553
1499, 14.337305412857404
1500, 13.333975867480603
1501, 9.418636287930894
1502, 3.2204052753913857
1503, -9.715972824492837
1504, 2.416818778788638
1505, 34.25660216519327
1506, 28.429180684230687
1507, 16.700816035789103
1508, 9.348393115759336
1509, -12.297023312465626
1510, -5.273845011077356
1511, 35.2702287727534
1512, 41.35148818716789
1513, 35.65380005957604
1514, 31.788766935604144
1515, 20.11691743811025
1516, 12.001924967284594
1517, 12.372688229041614
1518, 5.310727651983598
1519, -3.9748020430215547
1520, -11.162802030874445
1521, -12.04961688042522
1522, -9.892771115479263
1523, -3.93295625481187
1524, 18.93943740862551
1525, 34.723791860670644
1526, 30.142652293187894
1527, 25.528305480098425
1528, 20.589936994731943
1529, 14.537137196758522
1530, 11.754502369093643
1531, 7.34699571917281
1532, 0.13860777797026458
1533, -2.572051634838772
1534, -5.082787242658469
1535, -9.59113680819064
1536, -10.413409312185195
1537, -4.93224780945593
1538, 7.1397702185704475
1539, 20.470337643366292
1540, 29.098791996981618
1541, 29.176794837941088
1542, 17.46864085947118
1543, 1.683293310127283
1544, -8.04404426398878
1545, 4.803194838127183
1546, 23.143926342506802
1547, 32.98450777648395
1548, 27.29408878363529
1549, 14.42478689433392
1550, 3.0759635868030273
1551, 5.085368261079111
1552, 5.4621236005637
1553, -2.6306282676050614
1554, -15.683706316865027
1555, -21.74280423049504
1556, -17.95998347763407
1557, -9.434129167888386
1558, -6.3275496645428575
1559, -8.1218442963891
1560, -7.160394419580825
1561, -16.382954912806326
1562, -28.682291184603855
1563, -24.632974821953212
1564, -19.468237360565126
1565, -12.808059358779246
1566, 0.09699784321583138
1567, -1.0078468332612829
1568, -16.291567327907615
1569, -36.05593013346743
1570, -28.08240886024987
1571, -9.11113277879258
1572, 3.243504953394222
1573, 38.50585939528628
1574, 70.28721215356609
1575, 87.12393418110742
1576, 148.49656259059975
1577, 233.04206917071951
1578, 308.9078868724141
1579, 393.68073904749326
1580, 461.3988803025036
1581, 502.1194838321144
1582, 527.5097488880942
1583, 540.5209274403278
1584, 536.4625941511326
1585, 503.8233936005381
1586, 448.53251371063016
1587, 373.51613049240586
1588, 282.85027891962545
1589, 199.20481498039362
1590, 124.31300976621196
1591, 66.94555278788539
1592, 26.08987433671382
1593, -2.114195429377105
1594, -21.557943393522237
1595, -36.52044896122334
1596, -40.058105770190195
1597, -32.06211844690688
1598, -27.844416339039526
1599, -17.394708148232894
1600, -5.220865164863881
1601, -12.934351061237066
1602, -14.167853341335558
1603, -8.147696275472299
1604, -6.640357983666945
1605, 5.413277287465462
1606, 21.07322583375526
1607, 26.604872664611776
1608, 23.202888261072076
1609, 6.167116036242533
1610, -17.304975766533516
1611, -11.576633197767023
1612, 2.149519909773062
1613, 10.645876025856069
1614, 9.87731465360821
1615, -1.827929981145644
1616, -7.0793673780231074
1617, 19.647890675958934
1618, 38.35640747086654
1619, 37.28478565079104
1620, 19.553194721179807
1621, 14.079429185936988
1622, 8.248302642634826
1623, -1.6082622637941313
1624, 4.988983484619894
1625, -4.3481168812604665
1626, -20.786026340120316
1627, 1.3365986784874622
1628, 8.468624226426073
1629, 3.3898042115083626
1630, 8.605307089042071
1631, 8.704830133619453
1632, 13.818977014377651
1633, 23.535857622115145
1634, 8.385784547486764
1635, 7.612181568362757
1636, 28.785469940525218
1637, 45.02546735164606
1638, 45.00874651477852
1639, 23.52536697352525
1640, -12.013154544099507
1641, -3.0341958297767633
1642, 16.90630029158001
1643, 17.23151566742854
1644, 2.42747530090719
1645, -9.74643205522807
1646, -8.161918259104368
1647, 12.586761791862045
1648, 11.981854903938256
1649, -2.3614089985071587
1650, -12.235678412075686
##END=



