##NAMES=
##LOCALITY=
##RRUFFID=
##CHEMISTRY=
320, 2.9437272495561047
321, -1.5797395882045748
322, -7.585960077109121
323, -11.076498881692714
324, -10.92769378293633
325, -4.5378871627845
326, 6.702259750884878
327, 15.903865052081528
328, 21.849966445755854
329, 26.941178065136228
330, 31.684888893840252
331, 31.469776606740197
332, 23.765483900632717
333, 16.383165297953383
334, 20.847512620005546
335, 33.47851483994691
336, 40.728094909876745
337, 43.158914393473424
338, 48.360248830825185
339, 57.190313085055095
340, 61.13227576130612
341, 56.95417686379824
342, 51.72216134416158
343, 51.25040289473873
344, 53.06964556269122
345, 52.60788378507459
346, 50.18880971643466
347, 47.47544551044848
348, 44.201773766819315
349, 36.30082628925447
350, 22.987942325646145
351, 14.928039095921122
352, 15.625956208133175
353, 22.7165468839421
354, 34.15155493588554
355, 45.77575307289408
356, 53.07913982232367
357, 55.73087431998738
358, 53.05350621712296
359, 45.80320670734727
360, 44.99793964564742
361, 53.80920042927846
362, 55.70700315513477
363, 40.30573819470919
364, 17.69404924961691
365, 3.4538971334141024
366, -3.677076970056987
367, -4.189449395456904
368, 2.558173654440907
369, 21.229919088437782
370, 53.13738382896918
371, 77.30174655042083
372, 87.25591922866715
373, 83.42845096274505
374, 66.1147177020066
375, 37.959121173173116
376, 2.8503657626406493
377, -32.32158329741378
378, -51.86538669676702
379, -56.15667251678042
380, -43.46387322656119
381, -13.491251723437017
382, 15.486784949081994
383, 38.989832984754685
384, 50.66400283048915
385, 47.25593915063928
386, 35.261636896654636
387, 23.858087774090563
388, 12.731365570273738
389, 2.107431678010471
390, -8.085663393486357
391, -13.080769555539518
392, -12.583395013978588
393, -7.706873037705918
394, 1.5729852125487014
395, 9.657266166987029
396, 12.495231353229428
397, 9.666380167334864
398, 0.6619557979629462
399, -10.773686878421358
400, -17.177785521151236
401, -18.046711780359146
402, -9.922586589851562
403, 6.8684907090218985
404, 18.852290425819774
405, 23.777311239197843
406, 33.290914486107795
407, 53.625201836506676
408, 73.93744342647642
409, 87.38912991011694
410, 97.5475672222401
411, 110.77807712583854
412, 124.28230956437255
413, 128.39755845078798
414, 124.8297618835004
415, 129.47510677092941
416, 144.2096355347885
417, 154.27976027475233
418, 154.7306669730524
419, 149.71995650342342
420, 141.8326387442994
421, 133.67808296099156
422, 128.3932708346656
423, 124.41401162551756
424, 118.25121166678582
425, 107.7557015704133
426, 84.76963388619788
427, 50.87696080088608
428, 30.57296856366247
429, 25.527484283433296
430, 25.566007612884277
431, 26.911264837424824
432, 27.958035814623145
433, 29.37509699281236
434, 25.22084948903921
435, 7.598822364451735
436, -13.30092814567979
437, -17.086759599529614
438, -6.847383286502009
439, 2.970075472348981
440, 11.084448400978545
441, 12.86336716849928
442, 7.640275628787094
443, 1.0231089053850155
444, -4.682477572439893
445, -7.248380191483193
446, -5.032995810483953
447, 1.4639980621632276
448, 11.993076245046723
449, 22.910785534242677
450, 26.58404762240025
451, 23.654489557189663
452, 17.544074734868445
453, 9.847343513213673
454, 10.219432683892592
455, 19.814122614513508
456, 29.932326560397087
457, 37.97580675561585
458, 41.08659206962966
459, 37.66098562393927
460, 26.432403310251175
461, 6.154504098157304
462, -13.042756881756759
463, -16.665048101982393
464, -9.335384187001182
465, -3.451455474413706
466, 0.2507702145521762
467, -0.3080785860292963
468, -4.589005462035857
469, -4.578430059249513
470, 1.6225352525443668
471, 11.785874186070942
472, 24.493731265833958
473, 28.593742849132468
474, 16.68696885094687
475, -1.2779774473192447
476, -14.013483138875927
477, -21.058415241604962
478, -19.81218831151
479, -10.811900832009087
480, 4.526978676373801
481, 23.843164937239635
482, 27.36367758742017
483, 14.77208025951677
484, 8.894122377552776
485, 15.343329003570943
486, 15.232689683673016
487, 1.6236857297417373
488, -8.840687702825562
489, -6.730312456991669
490, -2.620411470120416
491, -7.530488976463857
492, -12.420435229662871
493, -1.2366213554969363
494, 18.647554806057087
495, 23.27756790080366
496, 14.633128105881042
497, 7.342166720579371
498, 3.194501612040767
499, -2.965267365875661
500, -12.106581118289796
501, -16.885158135596612
502, -15.248217199395185
503, -10.798510286890632
504, -4.939666008489439
505, 7.628234592296394
506, 31.83037986895124
507, 62.82643463140175
508, 94.53452868169552
509, 121.11398478004503
510, 143.499698194928
511, 164.91681259833422
512, 194.97224891992482
513, 232.00307845822135
514, 265.28632874992763
515, 292.5529087571804
516, 306.8692268136092
517, 307.4713208285775
518, 303.4276575049671
519, 297.6214712430301
520, 290.3244258676341
521, 281.6591768995031
522, 270.6216212447898
523, 256.49069897253594
524, 236.04474805442715
525, 205.66940405681544
526, 169.74214386120002
527, 135.73983934249645
528, 103.08933509192593
529, 70.0267068058456
530, 43.32303366355245
531, 19.753976145580964
532, -1.56642273538273
533, -14.173013955789429
534, -18.161388009244547
535, -15.528547204477945
536, -6.765359540170721
537, 2.9254803145950063
538, 12.404977249834701
539, 23.513806235812808
540, 35.4127546782247
541, 38.86043400414019
542, 27.031357568086605
543, 12.958122521691621
544, 12.382356358359175
545, 17.93788632895121
546, 16.49205128372887
547, 12.781956162519236
548, 19.455297879087084
549, 29.51406893031799
550, 22.63498290937332
551, 2.338771017792169
552, -6.991744342073616
553, -4.365151669759143
554, 2.237518254828501
555, 11.39283542589419
556, 17.431818042379746
557, 18.774846304864695
558, 14.010769274893391
559, 2.7853476541531563
560, -6.069946616181369
561, -8.831925762605351
562, -3.4700847907879506
563, 12.28818031476385
564, 25.12078891261899
565, 20.28598198105101
566, 6.039610149115106
567, -4.462515834838996
568, -12.279125805453987
569, -18.48328525676061
570, -19.518884185693423
571, -3.6184001698266
572, 23.06074488851391
573, 28.14105907643352
574, 14.741718443459831
575, 18.39371746739471
576, 38.6805465012676
577, 45.34918619524706
578, 33.29538132127709
579, 16.033898200987096
580, -2.160049719849667
581, -13.052076377804042
582, -14.558514764191386
583, -7.547818165544413
584, 8.197164369363236
585, 21.378097853664258
586, 22.596424327965906
587, 15.20291957556583
588, 2.204719555522388
589, -5.113847790786167
590, 6.032840011705048
591, 22.431706803340603
592, 20.20137993633034
593, 7.2198483757438225
594, 0.8189916359078779
595, -0.408096945957368
596, -2.1888184953522796
597, -3.6581996545901347
598, -0.1417815285258257
599, 5.972793265492328
600, 0.12888242268127215
601, -15.0474314326475
602, -14.113887882343079
603, 4.956213245199251
604, 22.4844481479322
605, 33.195870898076464
606, 37.1875082531069
607, 34.37350357374271
608, 22.809763745445707
609, 2.371133287135308
610, -10.611871122589946
611, -10.319917397559948
612, -6.764110397674813
613, -5.306514374301514
614, -5.507633271508894
615, -7.175215050157931
616, -6.893436874131112
617, -1.373386832234246
618, 4.560222156437703
619, 4.791130614441499
620, 2.2686330803444434
621, 1.5336572238566077
622, 1.4349746700017931
623, -0.04593362897685438
624, -1.5650224622613678
625, 0.10806565682923974
626, 5.006368232999193
627, 12.932115466466712
628, 26.027943791435064
629, 50.13140531167301
630, 78.46032541219483
631, 93.03938064783961
632, 92.55658259462416
633, 79.63566975572485
634, 56.724153723617746
635, 36.31187570846669
636, 21.006296299377027
637, 16.925386109604005
638, 22.95457953234836
639, 23.319267835267055
640, 15.317453780420692
641, 7.637793350928405
642, 3.5112006193921843
643, 1.612106362994382
644, 1.552233461121432
645, 5.790132748095857
646, 15.283364822815201
647, 15.287009652009147
648, -0.4333440966984199
649, -10.344422606022817
650, -3.712114860110887
651, 7.650837323899395
652, 16.880700707948563
653, 22.450820731556632
654, 23.78805197069505
655, 16.917862164184953
656, -1.6206802556334878
657, -17.93206401713178
658, -19.328061170081128
659, -12.047293843378611
660, -2.584687653871697
661, 4.071839967618871
662, 0.10960652570884122
663, -7.706796497503092
664, -9.596066137037269
665, -5.239444817621006
666, 6.4788180387595276
667, 21.817749214113064
668, 30.38486388680849
669, 32.11196045398174
670, 27.43075341965232
671, 18.015075357634487
672, 7.955454448370801
673, 0.5073885753281502
674, 1.142568568598108
675, 6.451312289082125
676, 4.723063928897318
677, -2.0273374975622573
678, -4.619698778537895
679, -3.847664495899153
680, -4.3652543178741325
681, -5.429438544245386
682, -2.1785016330250073
683, 4.512772763233443
684, 7.71770488743914
685, 8.640975136408997
686, 15.947532900842816
687, 28.20038925841436
688, 36.504931113939165
689, 39.79829809126113
690, 39.34825522767915
691, 35.13581779503238
692, 25.81081914506558
693, 12.905261698211689
694, 9.448326839753463
695, 15.615395488983268
696, 18.680283528754444
697, 16.450809568777913
698, 9.942876126088777
699, 1.1918091121051475
700, -3.8485021323567707
701, -3.8875632499457424
702, 3.5121673590010687
703, 18.662174228942604
704, 33.70489758874828
705, 44.57431487499525
706, 52.272667083386295
707, 57.057000258149856
708, 58.93126194301385
709, 58.44376514812848
710, 61.593411550552446
711, 69.0102925187548
712, 69.01959439562506
713, 58.95523521274936
714, 46.43609649834889
715, 33.54646552122995
716, 18.706097864679577
717, 4.268893967565418
718, 0.7705602781406924
719, 10.329539372307408
720, 19.192504761073906
721, 21.881189874355186
722, 19.028768530512025
723, 11.416168607011969
724, 7.87393131115914
725, 10.348384078879462
726, 18.041062024552957
727, 28.762009512458462
728, 31.65684628512463
729, 24.007703829053753
730, 13.96603294153374
731, 4.470282738381684
732, 1.5665266903124575
733, 6.087300683987451
734, 11.417587356989316
735, 14.539065084460162
736, 11.812731610531955
737, 3.007313821720345
738, -1.959595519722825
739, -1.3085254491179512
740, -0.1486616497804789
741, -0.23711032154278655
742, -6.2214339412494155
743, -18.6547246983273
744, -25.803644359259124
745, -25.096106487193538
746, -17.109770899583054
747, -2.3049723329477274
748, 10.940031117190301
749, 20.23779504912909
750, 23.247949328853792
751, 20.414953352944394
752, 19.374822472123924
753, 21.424640711970824
754, 24.13319410245458
755, 26.00520565755778
756, 20.19239106016903
757, 6.66214135475002
758, -6.014946448202863
759, -16.41542467606814
760, -17.9551384488268
761, -10.65723885276293
762, 0.2983682610974938
763, 13.781053439426614
764, 23.095681889479238
765, 27.12727346142674
766, 24.908333649727865
767, 17.166924910545276
768, 7.408386859813618
769, -0.699387686807313
770, 1.652825146458781
771, 13.08714229371435
772, 25.9939296696748
773, 36.18243456455002
774, 36.944616008483536
775, 29.025253508215428
776, 15.905100341491561
777, 2.960679734805126
778, 3.6867291710004793
779, 12.16538543499155
780, 12.749716406963671
781, 7.605266678508997
782, 3.194603498224751
783, -0.5768809927249094
784, -3.766315672553901
785, 0.002037664715317078
786, 21.978219564257415
787, 45.14509007684046
788, 44.92995247055842
789, 37.0057531617731
790, 41.20096937172184
791, 42.43345466390838
792, 24.340894370565366
793, 5.973883003041919
794, 5.51805048226197
795, 7.643516558036936
796, 0.5373788688530112
797, -4.7309057937627585
798, -0.7517731522630129
799, 7.1786093290857025
800, 16.48254939626713
801, 25.268631711937815
802, 32.70423034592841
803, 32.793404068708696
804, 23.534649308431653
805, 15.461995638435837
806, 14.00697764425695
807, 18.970469421364214
808, 28.421543197337996
809, 37.03737789667048
810, 41.94333457171433
811, 31.11832695018711
812, 5.987855246228719
813, -5.935307172240755
814, -3.10676836895982
815, 3.1240039395024723
816, 12.310894725269463
817, 28.231029156008844
818, 45.33550326179193
819, 46.834054277884206
820, 34.84282205886848
821, 20.17171723478441
822, 5.96074935438719
823, -1.2506391832184818
824, -2.5322651425431104
825, 0.7367371586597073
826, 6.878805796114648
827, 13.269267997187853
828, 18.315352977953808
829, 20.8793578073537
830, 18.480012328867815
831, 8.52429343863514
832, -2.341137311204875
833, -10.37844951556599
834, -12.668926875763646
835, -7.012907793044178
836, 6.7174383427991415
837, 29.16310386551595
838, 48.01786337432077
839, 58.50294447584929
840, 61.86782043902622
841, 58.52595677438876
842, 48.45423785170988
843, 32.39408568800809
844, 15.90949298446776
845, 2.655318758743306
846, -3.511042403188185
847, -2.788898180988326
848, 3.2619713417461753
849, 12.325503223626583
850, 15.062615499615276
851, 11.402489558151501
852, 2.974176433257526
853, -7.88300195109241
854, -18.371891411068646
855, -23.639085140795032
856, -15.393164219645769
857, 1.001391863178469
858, 19.97086706814298
859, 30.87412812233015
860, 25.0000955367168
861, 16.605428935544296
862, 14.639485752817563
863, 18.63664438923024
864, 25.814329060965974
865, 29.356973589872723
866, 26.754888938935437
867, 17.556893893945926
868, 4.5669678501453745
869, 9.563995132844866
870, 31.172375510916936
871, 36.72435461315308
872, 24.790145209229195
873, 6.972986337652401
874, -10.476286387373875
875, -16.96843703109971
876, -12.754408661338857
877, 1.9251480872271713
878, 20.273475231730117
879, 29.688428351285438
880, 32.511743080671295
881, 31.40575787076341
882, 29.488740001793303
883, 28.973250057261794
884, 23.576151279821715
885, 10.441457113656725
886, 1.7565762032763814
887, 0.6174821526738015
888, 2.1578347332697376
889, 4.646935951595879
890, 4.417655481561269
891, 0.27547947996481525
892, -10.113442752370247
893, -20.995461153542237
894, -9.239174847278264
895, 15.897902028316821
896, 24.946310961680865
897, 25.262022601267745
898, 31.90115942448756
899, 35.181713545680395
900, 23.29620631605394
901, 16.595859285382176
902, 32.51564708550177
903, 43.81317849803327
904, 37.04154098678919
905, 24.9276095312498
906, 12.638824016907165
907, 4.297539817614052
908, -0.14691761742869858
909, -0.9882408548255626
910, 3.0698394028331677
911, 18.15529353083457
912, 36.18078590511777
913, 32.9558486493961
914, 16.915025702194725
915, 7.610265332593372
916, 2.3741870369094613
917, -4.530096610294095
918, -6.179297340799167
919, 3.5447851313429055
920, 12.50604828376163
921, 13.181217502535219
922, 10.29312596323507
923, 6.130855137862454
924, 6.104949379559912
925, 11.22228227710275
926, 19.64983199279868
927, 26.89135417592206
928, 16.817473865068678
929, -3.3689022642092823
930, -12.337805369039415
931, -6.569058410842445
932, 20.08155087861178
933, 50.381843878761174
934, 61.615948376843335
935, 59.36599223787107
936, 47.28770590534896
937, 25.614509241466294
938, -3.0796002409369976
939, -11.929465306795464
940, 0.28090471129144134
941, 1.479395317509443
942, -5.185501416515763
943, 13.032609845357001
944, 43.32261428038237
945, 40.63212616806595
946, 20.96063600270736
947, 12.37139075491632
948, 7.289316718067312
949, -3.164248145538295
950, -0.27391453533709864
951, 26.02210690297761
952, 43.44779271936568
953, 41.6566212415064
954, 34.68361064412511
955, 25.313268599255025
956, 11.287707603833951
957, -2.125022730700948
958, -2.836464563610207
959, 6.673944365374155
960, 21.08990322412592
961, 30.48511685295125
962, 24.537160233614486
963, 12.905146620263622
964, 2.2396959034886095
965, -3.588222567120283
966, -4.071219686814402
967, -3.213530384387923
968, -2.4628191340461854
969, -4.568707941424691
970, -9.027712404795238
971, -12.809777335014587
972, -15.311431384730895
973, -15.399761798007603
974, -13.381677067482087
975, -9.398055487168676
976, -1.239669898928696
977, 12.22214432893088
978, 15.382976854255503
979, 4.9172661900374806
980, 3.2722161739557123
981, 12.62432210764382
982, 21.067588008205348
983, 24.172752362516803
984, 13.971878522302177
985, -4.870472342099674
986, -24.921511326916516
987, -32.564825721889974
988, -15.896314510408047
989, -0.04917567307165882
990, 4.13591678836201
991, 7.207682376771118
992, 11.803892113563961
993, 14.91667735808187
994, 18.738324324637688
995, 31.499230550221
996, 51.89032628396944
997, 70.84550224170471
998, 86.57397710359874
999, 97.44367677844821
1000, 107.60112671961178
1001, 118.51960703000259
1002, 117.91242644367321
1003, 104.26070137311035
1004, 93.22343502326657
1005, 82.96151332313366
1006, 57.627820744618475
1007, 26.599622489418834
1008, 13.281776888301465
1009, 8.899886165421776
1010, 4.640475003165193
1011, 1.1204878720081979
1012, -1.2889789718065003
1013, -1.0076363864473024
1014, 1.6041526423096002
1015, 1.0287803251339938
1016, -1.2399437797384962
1017, 2.591724454996438
1018, 9.521559547669312
1019, 13.24293254161421
1020, 21.72471421071168
1021, 40.27348203927431
1022, 53.40029788024276
1023, 54.244828620135195
1024, 50.06733570022607
1025, 42.2015279132911
1026, 27.762477953092457
1027, 10.642736378596965
1028, 2.948177061803108
1029, 0.7570790423378639
1030, -1.261562606440748
1031, -0.7408030830374628
1032, 3.738397966305456
1033, 4.716390212128317
1034, 0.02241041493107332
1035, -2.48366916057239
1036, -2.5301245924956675
1037, -3.532251569716209
1038, -3.6209264403341876
1039, 1.3164057121530277
1040, -0.1175418304565028
1041, -17.857489888059717
1042, -26.457567118342013
1043, -16.259888562148262
1044, -6.326424795416642
1045, 0.5367849159256366
1046, 9.542308503143431
1047, 14.636680505007462
1048, 1.6209808761477689
1049, -15.642709826068312
1050, -23.398270301145203
1051, -26.30207230965516
1052, -26.846123052851908
1053, -26.35659167540325
1054, -25.07132056451792
1055, -22.566174286536807
1056, -21.597157103060454
1057, -29.27978295144294
1058, -38.6943442328502
1059, -41.40050027150937
1060, -39.38621667616644
1061, -33.429218698934164
1062, -23.033994534313933
1063, -9.611675822225152
1064, -3.3773948680154717
1065, 3.7084490061452016
1066, 33.22990973896867
1067, 81.55028771378966
1068, 145.30404883975916
1069, 243.4852923103881
1070, 388.8406913753224
1071, 518.1108240354824
1072, 625.2496265890168
1073, 728.4150792223982
1074, 820.3994862857571
1075, 881.5745892178484
1076, 922.9619179187548
1077, 955.1819659355415
1078, 952.1758354352442
1079, 903.5195005426758
1080, 822.6980203789208
1081, 718.1559785902864
1082, 609.4744976444381
1083, 502.5608484396107
1084, 404.55441866148976
1085, 309.0442409837642
1086, 210.85775070235013
1087, 129.1330722196426
1088, 58.056610015591104
1089, 8.881002358786645
1090, -18.47161712279376
1091, -21.83541142368722
1092, -25.05481671396319
1093, -57.8072040235802
1094, -79.76070540529327
1095, -71.30383800814889
1096, -58.63810299053421
1097, -45.313986429311626
1098, -20.832749556187082
1099, -1.6279629087830472
1100, -23.178713965709903
1101, -39.603881514840396
1102, -14.779027819942712
1103, 9.29161350655886
1104, 19.180828557253335
1105, 25.06477447016823
1106, 24.009427985210095
1107, 4.036585253603334
1108, -14.68484352586347
1109, -10.835859436218925
1110, -3.3461945599638057
1111, -0.2864130858251883
1112, 5.711133961376618
1113, 14.163756003788876
1114, 15.480726996981502
1115, 12.92152403212549
1116, 12.572137894197112
1117, 15.895613197077182
1118, 22.62791950294286
1119, 19.739629438854536
1120, 6.695098574174153
1121, -2.7579759397112866
1122, -5.259899136839522
1123, 4.164595335669219
1124, 18.623656839539763
1125, 31.0761878021176
1126, 32.77284312541178
1127, 22.460161478878945
1128, 8.115502246905635
1129, -2.1699012677008795
1130, 3.544953094261473
1131, 9.574575659952643
1132, 3.6453799283672197
1133, 9.935095029883087
1134, 32.84518151689008
1135, 43.25326836837212
1136, 43.20807492320728
1137, 46.60198988306183
1138, 50.70253449914526
1139, 52.92747426513142
1140, 60.4151500369062
1141, 72.60661972771868
1142, 71.55658039409627
1143, 54.78455906056752
1144, 22.87418253558917
1145, 2.086274032159963
1146, 10.511225262794142
1147, 21.46936096225727
1148, 25.806062001212013
1149, 34.74020916665086
1150, 37.88988100753795
1151, 9.474052512689923
1152, -17.167542709513327
1153, -17.85322183844073
1154, -11.011987674424745
1155, -2.156544644567475
1156, 10.084220269321122
1157, 19.483045001446953
1158, 13.55295477781965
1159, 2.0867404540276766
1160, -6.799098262245934
1161, -8.278792199941563
1162, -4.444050225653882
1163, -9.64349721922008
1164, -16.506726015170898
1165, -10.463424701970325
1166, 2.3557109477351332
1167, 17.50247897256577
1168, 20.869233619795523
1169, 12.161397195248355
1170, 2.5834691466579898
1171, -2.268099717334735
1172, 4.730388327173387
1173, 30.530182925547706
1174, 73.96369785222396
1175, 87.39865621435092
1176, 78.36781575882833
1177, 85.73925966008755
1178, 95.38467066800513
1179, 93.67262058242159
1180, 99.43112132004171
1181, 112.16046126730271
1182, 98.74112875962237
1183, 74.13893572824054
1184, 72.01974425576282
1185, 66.66024309818931
1186, 43.565845764381265
1187, 24.740308123413342
1188, 16.743431973840416
1189, 14.692089159969328
1190, 15.745970933007811
1191, 15.301711486140448
1192, 4.409661701117329
1193, -15.744111433912622
1194, -22.0236463469746
1195, -16.818163815522894
1196, -11.034731264157017
1197, -6.236602673512607
1198, -3.8231043054984184
1199, -9.694433633882
1200, -19.757488740032386
1201, -14.031534211100734
1202, -4.514167883253322
1203, -6.820470060503794
1204, -0.8835311642360466
1205, 18.247721583067687
1206, 27.160856637092365
1207, 27.788549587731723
1208, 30.621975380994627
1209, 25.960037574433954
1210, 9.73331382642391
1211, 6.298220641664557
1212, 13.143635860729773
1213, 6.715328452780341
1214, 2.4788188056591025
1215, 15.258606099104327
1216, 17.543927759683356
1217, 6.022401506410461
1218, 9.545756266477838
1219, 15.760430647360408
1220, 2.0131608482906813
1221, -8.660121788178913
1222, -7.267867520834443
1223, -5.412505396133383
1224, -4.503895405799085
1225, -3.375488615272843
1226, -2.7406629988799978
1227, -3.1340487176730676
1228, -4.373812582865867
1229, -4.07992467160966
1230, 4.981902580619135
1231, 18.461861263393985
1232, 29.86110761872169
1233, 34.59588217275359
1234, 32.53287838673441
1235, 29.121516885647907
1236, 23.174425528326537
1237, 12.770401546053108
1238, 8.591111594377253
1239, 11.610139111216085
1240, 7.646743796717601
1241, 1.7442318344419618
1242, 3.6024343002764
1243, 12.971735833752973
1244, 29.203723134227403
1245, 42.97873253765556
1246, 50.52659333201336
1247, 47.060374816026524
1248, 36.797994331954214
1249, 23.502532921943384
1250, 14.677883964523971
1251, 12.588251297212082
1252, 15.087325143634189
1253, 24.063456394475907
1254, 37.52823315678506
1255, 38.571209302639545
1256, 29.012359546168227
1257, 25.331452863827508
1258, 18.856615714667896
1259, 3.6757161283949245
1260, 6.206379831338381
1261, 23.84780558458533
1262, 25.52960081610854
1263, 21.996934194050482
1264, 24.03221483784182
1265, 14.82789083593525
1266, -0.3441533608511236
1267, 5.431217631204163
1268, 21.699284957102464
1269, 34.420877564847615
1270, 40.67044324141807
1271, 40.259667593466475
1272, 35.60575975962547
1273, 25.755191481761358
1274, 10.718183637111906
1275, 7.737586670245037
1276, 16.184699338994506
1277, 17.213741351612043
1278, 14.297679825408522
1279, 11.87475917660322
1280, 2.6582198097567016
1281, -9.769122523322949
1282, -8.774421423137937
1283, -2.219393462724838
1284, 1.6288913957750992
1285, 3.9603314817213686
1286, 4.14298045842861
1287, 0.06504723460511741
1288, -4.6991941746027805
1289, -6.477464447284092
1290, 3.6344712005757174
1291, 20.864980632240076
1292, 22.527098436795313
1293, 12.711602460266022
1294, -2.678952505919824
1295, -8.833683941576965
1296, -3.9924466170145934
1297, 9.440348103458291
1298, 22.117896243183168
1299, 26.337780737058438
1300, 24.806908376958745
1301, 20.26684229267903
1302, 17.04670192482945
1303, 7.736802128947147
1304, -7.708331153331073
1305, -10.890199159528038
1306, -3.9126097289667996
1307, 5.448287844817514
1308, 14.077641482845138
1309, 17.273214454467052
1310, 4.294062702855626
1311, -11.485890046254553
1312, -13.01570795831276
1313, -2.3094268253089467
1314, 14.938767893596832
1315, 17.70664320548667
1316, 13.83191690169815
1317, 12.552283272092609
1318, 11.05983706711595
1319, 10.332470580055542
1320, 14.893363818013768
1321, 11.56604946380321
1322, -5.2544280233928475
1323, -7.622570024278502
1324, 1.6193032238343221
1325, 7.417695927007571
1326, 8.490353388613585
1327, 4.752340958535569
1328, -1.9452768025271325
1329, -7.899037572978159
1330, -7.826638224835278
1331, 1.9852264946016476
1332, 20.585604567824248
1333, 36.99065509393995
1334, 43.47742861325287
1335, 34.25060047312854
1336, 11.740892661829093
1337, -13.950194761360308
1338, -26.684095030928347
1339, -19.78893353712374
1340, 5.125082207071046
1341, 15.774219672972777
1342, 13.758306754283694
1343, 9.887094397861347
1344, 11.225826413245613
1345, 19.68791682486153
1346, 32.72703736084895
1347, 36.32671179962108
1348, 20.916404315570162
1349, 6.056289064460088
1350, 3.659465952741357
1351, 26.65530146605215
1352, 39.935030076464955
1353, 30.176115787206072
1354, 18.51989049330632
1355, 6.523273805549707
1356, -5.343291323565609
1357, -4.4716005711234175
1358, 4.550755114403728
1359, -0.4798073304045829
1360, -3.1273748302937747
1361, 5.909385974704946
1362, 14.211173638983837
1363, 21.33294326338364
1364, 29.84160304520219
1365, 24.312086531583645
1366, 7.306193579197952
1367, 5.035080081322576
1368, 4.913806331050182
1369, -0.7159450807944268
1370, 9.61311434907202
1371, 31.83594564979967
1372, 49.21536324902809
1373, 57.39996330695158
1374, 54.15867808772373
1375, 37.513682855211755
1376, 16.589029520710483
1377, 2.6725858535269253
1378, 9.379157670448876
1379, 24.80177870014586
1380, 21.856479168415717
1381, 14.345323399456902
1382, 7.923201940476702
1383, 3.0698645629472594
1384, 1.9816580677124875
1385, 5.472442305402637
1386, 5.432730316595553
1387, 4.913916786744721
1388, 11.086099599285717
1389, 17.76691330174299
1390, 20.459012414241442
1391, 12.150172080020184
1392, 7.586564235569767
1393, 14.854122697065122
1394, 13.42621787840244
1395, 3.2129548832062937
1396, -10.267587057685432
1397, -16.902246031849245
1398, -11.801385354187914
1399, 9.981781377833613
1400, 22.274305555452884
1401, 12.808999030017276
1402, -2.720941050597048
1403, -12.919185572058723
1404, -9.402590843479175
1405, -0.07815383831621148
1406, 9.794993396913924
1407, 12.50162341553687
1408, 16.388266308420498
1409, 23.109251610879255
1410, 26.0714264564549
1411, 20.41021726029112
1412, 5.916808243739069
1413, 0.8743585650727255
1414, 0.41573218076564444
1415, -4.049464734107005
1416, -0.0562449242738694
1417, 10.802402907920623
1418, 15.90229410902748
1419, 22.410228798129992
1420, 28.692040476148122
1421, 15.163521361922449
1422, -0.25445425758971396
1423, -3.75497028241125
1424, -8.077486509993378
1425, -9.623249735726858
1426, -1.4978102968839266
1427, 0.34775900571548846
1428, -3.2345399521818763
1429, -0.6898872833830865
1430, 1.114948312827437
1431, 0.10180629943670283
1432, 0.30459972835069493
1433, -2.945909083708557
1434, -9.074330093668777
1435, 6.209278173223538
1436, 28.760250416853978
1437, 35.84195458417025
1438, 32.90528360125654
1439, 19.307686408424615
1440, -6.5312226711371295
1441, -9.51996163900958
1442, 6.093262549019073
1443, -3.6641739733563554
1444, -4.592068767227829
1445, 15.545268628545273
1446, 23.843516705390357
1447, 20.30469930665822
1448, 9.42032220753481
1449, 2.1382114685784472
1450, 5.325821954240382
1451, 24.92093084640328
1452, 44.407998898941514
1453, 47.14543925811358
1454, 13.805376064471147
1455, -1.4012160689267148
1456, 9.235226026776218
1457, 22.44375834248649
1458, 25.21752545861409
1459, 14.763641691921748
1460, 0.1496285000162061
1461, -5.153686800743799
1462, 4.415667667821253
1463, 17.66740273649657
1464, 23.436378315041566
1465, 17.706292383880736
1466, 33.417319456457335
1467, 50.70147216439227
1468, 41.20495122678767
1469, 33.63499775685477
1470, 32.84617996834049
1471, 34.759425084178474
1472, 42.24621034357051
1473, 46.332976165033415
1474, 25.629721296072148
1475, 7.898675755615841
1476, 6.67342607672299
1477, 22.65863519219056
1478, 33.37753849035607
1479, 29.63745959070775
1480, 21.60428018608218
1481, 12.556270603111898
1482, 7.88840142443496
1483, 18.81160151658696
1484, 20.455962251975052
1485, -0.599771858162967
1486, 6.453737166884366
1487, 23.917150865031545
1488, 23.75412617719303
1489, 17.73694587365435
1490, 4.098134377228234
1491, -18.59315556891852
1492, -18.38425602963207
1493, 0.08959602096047092
1494, 17.109964702781326
1495, 22.92556921383357
1496, 21.816335432402866
1497, 26.309134683863704
1498, 27.439305173353205
1499, 23.604063574698102
1500, 18.02906584837092
1501, 9.772383476388768
1502, 4.4388364953920245
1503, 13.216255451021425
1504, 20.04093006008725
1505, 18.863844844986488
1506, 12.624061615797018
1507, 7.00043364778503
1508, 4.403474928036758
1509, 1.398688623282851
1510, -12.038688232132245
1511, -31.40710727355099
1512, -22.578499000052034
1513, -1.225741374806148
1514, 19.059995669154887
1515, 22.581919087700044
1516, 20.705598616509633
1517, 21.170565260416424
1518, 23.1167249593218
1519, 17.91369683408766
1520, 5.158451328158208
1521, 6.151205274422864
1522, 12.32279699277342
1523, 14.753163088141264
1524, 9.741666907606486
1525, -1.5689321501236009
1526, -12.380815355305458
1527, 0.8549900127777619
1528, 11.410458871287574
1529, 2.8292240869868692
1530, -1.08669173529006
1531, -0.13924335324145432
1532, 6.146609229323076
1533, 25.95501691626896
1534, 29.668140995071553
1535, 6.170216689888093
1536, -4.09087963170623
1537, -6.257404062196656
1538, -1.605866877340759
1539, 28.194917926135986
1540, 40.850347530022646
1541, 19.901944283582907
1542, 10.83301133889654
1543, 0.13346562723745592
1544, -16.562193478696827
1545, -18.210018393216615
1546, -12.726232117785457
1547, -5.250750503967083
1548, 4.217271637721751
1549, 8.737113679854247
1550, 5.502925258016603
1551, -1.8650845184333775
1552, 1.881781483269151
1553, 9.88076285362149
1554, -14.51336713003866
1555, -27.9693756133056
1556, -21.218802440560466
1557, -15.485065256791131
1558, -15.58255707709759
1559, -24.460040654095337
1560, -43.321163843602335
1561, -41.15535970316887
1562, -22.97753660099579
1563, -15.84583206472962
1564, -23.775467221309555
1565, -32.88173212412721
1566, -20.729592166016573
1567, 7.680142275795333
1568, 42.02861582884907
1569, 71.95368005556111
1570, 107.08951952487405
1571, 160.1883618510201
1572, 243.21503567204854
1573, 331.8108201737855
1574, 415.4524485178722
1575, 491.2674457635717
1576, 579.3821852621104
1577, 649.785046525576
1578, 683.8304517284209
1579, 690.1384966122178
1580, 679.3762698535493
1581, 656.7497873755001
1582, 621.26291366335
1583, 546.97385499141
1584, 442.15037535454803
1585, 346.64824322524146
1586, 259.37460359664965
1587, 177.92231977361098
1588, 115.4170384671288
1589, 47.90579432812865
1590, -8.013266514386032
1591, -27.841230387032738
1592, -35.646211046207554
1593, -29.708572588584502
1594, -11.65367124487284
1595, -14.329733572573332
1596, -19.531442901854916
1597, -17.339989697840338
1598, -20.108594588903088
1599, -20.817411025665933
1600, -16.38108206467723
1601, -8.436689733279309
1602, -4.018769258387238
1603, -5.865120452505835
1604, -13.90003365416078
1605, -17.870308900930922
1606, -13.602846220200263
1607, 0.0870766409875614
1608, 15.918793072471999
1609, 25.170293400894025
1610, 25.828948914216653
1611, 31.011794479348282
1612, 26.155721539133538
1613, 8.5068831569356
1614, -6.797605279782601
1615, -12.410018115781895
1616, -8.427232623106647
1617, -0.6952967910519874
1618, -7.1091557613453915
1619, -13.51105159801682
1620, -1.4182787679833382
1621, 20.783633383974575
1622, 34.1553596051358
1623, 28.70861898548992
1624, 12.274189056163777
1625, 6.1511487429811496
1626, 11.236930627469974
1627, 9.33369335936186
1628, 9.833684389147038
1629, 11.332928484553577
1630, 8.709423177440385
1631, 4.005060950588813
1632, 0.662450015941431
1633, -0.26574581395243513
1634, -1.1404967812200084
1635, 3.542572441428092
1636, 8.223985681624526
1637, -3.645756350913416
1638, -0.5286693315392768
1639, 11.223440228315667
1640, 13.464824258424414
1641, 19.74186097842403
1642, 10.034861854122482
1643, -15.039067036102551
1644, -3.3292750407999847
1645, 13.646311244278422
1646, 14.617644119025499
1647, -8.367737542927898
1648, -23.844962529511577
1649, -15.155266923752151
1650, 18.709130352815464
##END=



