##NAMES=
##LOCALITY=
##RRUFFID=
##CHEMISTRY=
320, -21.968243979591534
321, -19.576144365695654
322, -13.936031704601191
323, -6.783228782327569
324, -0.17657519092881557
325, 1.6648302829062231
326, -0.06754463955803658
327, -0.5060733438240277
328, 0.7286718588648
329, 3.1806499301583244
330, 6.556895651627201
331, 7.341963071824466
332, 3.606831898933706
333, -1.3968116309379184
334, -3.6938848922955003
335, -2.2943395288857573
336, 6.268262090404278
337, 21.28458018762103
338, 31.23031194492978
339, 34.29832481131052
340, 31.769958261300417
341, 24.150660577719464
342, 18.647508792108965
343, 23.059469219181665
344, 38.75992734224292
345, 65.16128406835651
346, 98.73226890585829
347, 125.50796380070824
348, 143.9301949518749
349, 152.63748518898046
350, 151.37671022792802
351, 143.32178921189825
352, 130.10808453915797
353, 116.25953995125292
354, 106.89817753087482
355, 101.32590863309997
356, 97.85655776227486
357, 97.28200604642461
358, 103.97565824427875
359, 117.47720262749135
360, 123.94957048468405
361, 119.25491340555163
362, 112.06521348910883
363, 107.82898238646249
364, 109.39172975697693
365, 120.6489231874857
366, 137.13332016767254
367, 146.3027130367782
368, 146.4442620222717
369, 131.86914070982402
370, 102.62980590149073
371, 74.0334900243497
372, 51.34855245711151
373, 36.382719889308646
374, 34.0220884973578
375, 33.848430967857894
376, 25.894264551448032
377, 13.987660364577096
378, 10.993539902529847
379, 16.715080193726862
380, 26.20544432019051
381, 38.04806469905452
382, 40.10578971086579
383, 28.26077842857012
384, 9.685232584514779
385, -10.764599764012928
386, -26.10346508838211
387, -26.493551032932373
388, -15.759609912776796
389, -3.4708824570379875
390, 8.978365192255296
391, 10.819950626305399
392, 1.1869178113756789
393, -8.827777199175216
394, -16.739986790946205
395, -18.476221597790754
396, -11.306251377249282
397, -2.895745864260789
398, -2.5506964962178245
399, -5.4093505857872515
400, -0.41430928993395355
401, 13.17356690269662
402, 35.67676737541842
403, 68.49959316046989
404, 101.03830788393498
405, 131.33325869470264
406, 153.27922468404904
407, 163.99257854841653
408, 179.5075505444529
409, 214.42022348115188
410, 258.6207230089112
411, 294.06949648080445
412, 321.7126507255389
413, 345.8496559168143
414, 366.2566131989961
415, 379.30550731658514
416, 385.1542071651884
417, 396.15889311105366
418, 416.34305657344794
419, 432.79541409751164
420, 437.4883083183904
421, 440.4351858429018
422, 453.67420431645496
423, 471.10078374837303
424, 479.09895195526406
425, 476.27682819152506
426, 459.0271572374031
427, 427.43489759177373
428, 385.1955615975212
429, 333.9526886214717
430, 290.7372830847935
431, 262.16595683192827
432, 241.0136085304748
433, 222.20336603678243
434, 200.0722150459169
435, 167.09392755660974
436, 126.97577358378021
437, 88.60913963739222
438, 54.20324042168522
439, 36.9246071376765
440, 34.429460123051285
441, 34.4902542006912
442, 34.60218036858714
443, 37.16322086483797
444, 39.68910219854115
445, 47.51315791941033
446, 64.25296126427565
447, 82.40348032445127
448, 92.60437438327426
449, 95.49128970097536
450, 92.51352339886853
451, 86.27372568974442
452, 86.37153038829365
453, 93.3262051828724
454, 104.39632670684841
455, 117.75325981815513
456, 114.15729477756031
457, 87.65448409166493
458, 59.578632507988914
459, 41.90056805546919
460, 29.484421044670853
461, 17.276405407316815
462, 5.214830345558767
463, -6.283708763409777
464, -17.251833862263084
465, -25.551684924147594
466, -30.083375988934677
467, -22.74285023174798
468, -3.9599114840330003
469, 6.82855894000113
470, 5.266570044454056
471, -0.5036190329301462
472, -7.222026436498709
473, -11.384887563815028
474, -10.640170045283412
475, -5.212391085783565
476, 5.101523189508953
477, 13.669404663447494
478, 6.7654079234125675
479, -8.415214729296167
480, -9.237687388853374
481, 2.2842132579480676
482, 8.576695618941812
483, 7.714295696267072
484, 8.833479429134059
485, 13.830365718245957
486, 15.60842320714437
487, 11.52735307499006
488, 15.93172860195773
489, 37.94146765213736
490, 58.52152115408262
491, 57.499804016440066
492, 42.32347984863645
493, 25.922264479771002
494, 10.347509867862755
495, 0.5860778647029292
496, -2.766007781638109
497, 1.0533956409963139
498, 10.329285423075817
499, 9.724190763482511
500, -2.4973471264711407
501, -5.6603327841376085
502, 6.726313126959212
503, 29.36096228558472
504, 61.248537534378556
505, 98.56856245212384
506, 129.7181927117308
507, 158.4791526877043
508, 189.6298448322168
509, 228.35010423413405
510, 284.80014905789994
511, 349.879842346174
512, 395.4599188815091
513, 421.7375911596673
514, 438.4291595362056
515, 447.9653863145122
516, 459.45361831168884
517, 475.4993915164341
518, 506.0480394553133
519, 553.3363277093586
520, 588.5932164160286
521, 598.2452788547007
522, 600.1877881522641
523, 607.2715805269399
524, 609.9087683623038
525, 597.3427546938037
526, 576.523716696237
527, 559.32976517735
528, 544.074319092977
529, 525.996955982032
530, 508.8466246463486
531, 507.45904710874674
532, 519.5439455986552
533, 524.2607621950392
534, 518.5230503384873
535, 503.92324768362505
536, 481.562356749283
537, 463.1453451964426
538, 452.79342024319885
539, 451.07230191900635
540, 458.21560282815335
541, 464.60733162991437
542, 463.14532830135704
543, 454.4886796289675
544, 439.36792948174934
545, 421.0758345969607
546, 404.9635178418621
547, 388.0480875737603
548, 363.23958649643646
549, 333.8005572826896
550, 311.40376204724635
551, 296.78820498541336
552, 289.1227980166723
553, 286.9225975560621
554, 280.5313737203869
555, 267.30061328250576
556, 238.5604137930295
557, 193.2380019953289
558, 157.41560794185443
559, 140.83693267187482
560, 127.53003023742804
561, 108.90524217377879
562, 84.4591230576043
563, 53.81302380786201
564, 26.275697017083075
565, 3.3388184325276598
566, -11.202463127755436
567, -9.554590409603406
568, 0.4199325721419882
569, 2.774250322740045
570, -0.44379669216777984
571, -2.920814155330845
572, -3.0557809138344965
573, 4.721644644769185
574, 18.228884937188013
575, 21.19985428066866
576, 12.298322713055313
577, -0.35358057693247247
578, -13.977715966389042
579, -17.089373213411818
580, -6.8278675830806606
581, 9.21069882957272
582, 28.088968100535567
583, 36.84532245855462
584, 29.091567445818328
585, 16.239275442606413
586, 5.898099730029571
587, 2.692911250452198
588, 11.043780480122223
589, 20.959812551391224
590, 20.562827055704474
591, 13.726899515256264
592, 6.778455332100748
593, 2.1336275140774887
594, 4.92842511724848
595, 10.73795296647313
596, 7.607518941425951
597, -2.7785191668717744
598, -12.327603546565115
599, -19.29670706334582
600, -15.310299560352178
601, 0.17811728096421575
602, 22.69241226833128
603, 48.37905680104723
604, 54.07530858554401
605, 36.99037976579439
606, 24.18816901235914
607, 22.606416845464082
608, 19.035619786584903
609, 8.978188657456485
610, -0.014039334741937637
611, -4.560726202925252
612, -7.639742020593076
613, -10.941457938077292
614, -6.307346005486579
615, 12.810247544738559
616, 30.026187563245912
617, 29.851235101848943
618, 23.270466332058277
619, 23.05915336175258
620, 28.233253302111734
621, 37.33156470237009
622, 46.65466967143311
623, 49.55763383377325
624, 43.92613327097479
625, 25.393220214712528
626, 1.8129842727194045
627, -5.111162410807992
628, 2.059603264720863
629, 14.090206984232282
630, 28.881755854876246
631, 41.98430865280352
632, 52.07540119629721
633, 54.97406119356765
634, 51.19250093550454
635, 47.06538676402943
636, 42.68124634590686
637, 30.976032087568456
638, 12.038328431701302
639, -0.06231180486292942
640, -2.1620425343144234
641, 2.440096363152861
642, 12.947000990546258
643, 23.46520723409685
644, 31.909078483357007
645, 35.18154233563564
646, 32.16839872579612
647, 27.038478660280816
648, 21.812029164033447
649, 19.023804608002138
650, 19.995542657864917
651, 18.509711157522815
652, 10.619279829353218
653, 3.615086629212783
654, 3.2986781703793895
655, 7.5438769774305
656, 14.196777706922603
657, 20.851749510368336
658, 25.057663602294724
659, 23.41703883844457
660, 11.904709568926592
661, -1.30027234748286
662, -5.173369152752457
663, -1.0478148915858583
664, 9.923300231016128
665, 20.136802173893102
666, 16.0717501690242
667, 4.405917218421109
668, -1.1517830186835454
669, -0.36073967590755274
670, 6.826636600994334
671, 16.79352376008228
672, 20.53132730145353
673, 17.45370904967558
674, 7.0984487842688395
675, -5.398730611888823
676, -4.9435583343947656
677, 6.355753318172901
678, 18.223907181445156
679, 29.040107829025146
680, 36.02926492665665
681, 38.09018382642944
682, 31.821674433052976
683, 20.302963988933698
684, 18.685502533174258
685, 24.977676836668252
686, 20.98409664672181
687, 8.04479594847544
688, 6.495897643450007
689, 16.250486845605337
690, 20.98282641947435
691, 19.80532156588606
692, 22.496467555760773
693, 29.176508943161934
694, 29.504763366514908
695, 22.672374377836604
696, 16.547892001053697
697, 12.269864125133608
698, 6.650489809339888
699, 0.06790951960783786
700, -4.98584442588799
701, -7.183409373757968
702, 3.2520115827319387
703, 27.880008601641748
704, 49.21824532239725
705, 62.92279685688936
706, 67.67301145270449
707, 63.99828956724332
708, 60.96286628036796
709, 61.18418315474719
710, 66.92326593175585
711, 77.8923533646589
712, 83.68037056403136
713, 81.43758608202324
714, 72.34637960808504
715, 57.89794126511333
716, 52.17580692261936
717, 58.51129161446033
718, 66.2484047491771
719, 71.82359364771355
720, 70.74649954870301
721, 61.84073705346873
722, 47.651162399265104
723, 29.80328785818665
724, 19.340063326299514
725, 20.720015705739115
726, 20.260367869652327
727, 14.941547774816172
728, 12.843341570051052
729, 15.716127417591906
730, 13.972683273849725
731, 5.291435771741817
732, -2.0125743254525332
733, -6.246495110662636
734, -7.005682286358024
735, -4.486020380133596
736, -2.8337160435944497
737, -2.987319186928289
738, -2.8712179287199433
739, -2.199755595628176
740, -4.480930401019123
741, -9.498737477587383
742, -2.5559357032998378
743, 19.18924091633926
744, 36.50937895911875
745, 44.43917218024126
746, 43.70535391738349
747, 35.760258382841585
748, 31.9912235266047
749, 33.805751391163085
750, 30.33604366084728
751, 20.200837095521365
752, 11.80177689127322
753, 5.90456853291289
754, -4.416268302750268
755, -17.119593220183106
756, -2.31565431704621
757, 40.19410296053866
758, 65.54025557505338
759, 67.20836704533576
760, 53.191378372603594
761, 27.873040405735537
762, 7.843931286160569
763, -1.621420657847466
764, 8.524748745924626
765, 35.30898328649073
766, 53.68624846094508
767, 61.17691711611951
768, 59.7452007331849
769, 53.10999017396625
770, 54.523633972153675
771, 61.922186339073505
772, 63.7940547723324
773, 61.800179081432816
774, 64.16453949435527
775, 70.11602725497914
776, 75.7892811649699
777, 79.70321469605688
778, 78.67341651564857
779, 70.5886784795357
780, 50.962564190863304
781, 30.530166776035458
782, 34.804694510574336
783, 52.10508276796054
784, 65.37124261401914
785, 72.76388299489963
786, 71.88982249542596
787, 63.294257359902076
788, 47.80535710254253
789, 36.34383396684052
790, 42.552913248219284
791, 52.64309927895829
792, 51.665363053234614
793, 46.82884803313436
794, 44.795303685580166
795, 40.75096636907165
796, 30.95359164571846
797, 24.25976871981129
798, 26.48340306616774
799, 24.20668179410859
800, 10.041458809215783
801, 2.5820727330133195
802, 9.536725754580857
803, 21.506724860164013
804, 33.13007430659991
805, 43.626039230136485
806, 52.046965250794074
807, 49.544759669947325
808, 35.51697919624712
809, 32.525089366513384
810, 43.96453963406384
811, 48.68890682266874
812, 43.399055576615865
813, 37.180361304089274
814, 31.9264790465063
815, 28.898528794391495
816, 29.580948513439125
817, 39.66341017831974
818, 52.86481457531909
819, 44.109333528921525
820, 18.634169780058983
821, -1.2345613794796009
822, -11.960176653456529
823, -9.28222827203308
824, 1.0789153289306341
825, 7.5923838429635
826, 9.697800361618192
827, 7.240437584986012
828, 4.303182906976872
829, 6.737831897774413
830, 10.089127639671005
831, 10.08859008944546
832, 4.766325893359408
833, -6.871607472638971
834, -11.394052309017752
835, 0.12448510178410288
836, 21.3564972217805
837, 47.73365295872054
838, 64.5421193357788
839, 66.59513024310854
840, 68.16143524661175
841, 73.67014795399791
842, 79.85855144306561
843, 84.54709338158318
844, 77.88485180470389
845, 59.93851177511806
846, 42.27408604658103
847, 27.734320857012335
848, 20.812285463432545
849, 20.483476490199337
850, 21.699034416173163
851, 20.358482483688476
852, 6.991279287988618
853, -6.668778338399079
854, 0.802121567926406
855, 18.276380876968233
856, 26.66628687803768
857, 32.586988935668614
858, 43.81707271809955
859, 45.7542666989516
860, 26.34493953901847
861, 7.800794730000689
862, 3.787330860647671
863, 2.8457726130895935
864, -0.5060447201667557
865, -1.898040177070925
866, -0.17545044674670862
867, 0.4258632108189886
868, 0.07489661136196446
869, 8.256252963779843
870, 25.39983496115201
871, 38.83845490674685
872, 47.25509441175791
873, 52.03606931219656
874, 54.52511332397489
875, 58.08587483808515
876, 61.21641568387895
877, 60.42518268620188
878, 55.193824874345864
879, 44.900065600311336
880, 38.89588599111539
881, 47.1870756361468
882, 60.79475612874376
883, 72.87636329924135
884, 80.18329662600945
885, 81.15100756010861
886, 79.76213902209702
887, 77.1879882935923
888, 68.9225550488045
889, 53.37338572900717
890, 28.239952461237863
891, -2.324512490334655
892, -15.915112692442563
893, -12.93029019173946
894, -0.1557826227581245
895, 17.769898764171103
896, 27.857231237675478
897, 30.2910928306369
898, 26.40386373595129
899, 23.253373398704753
900, 29.206485963896284
901, 34.87618810091544
902, 32.82549724928276
903, 27.315956465794443
904, 20.9503813054107
905, 18.629575924460823
906, 21.77360801075247
907, 25.535989880370835
908, 27.434269340176343
909, 19.79832160168189
910, 6.397295779905107
911, 9.581306690473411
912, 24.07904026617871
913, 25.88766493800358
914, 19.959224750671183
915, 18.85750315137375
916, 20.365848856833054
917, 21.116041321547982
918, 25.739450130145542
919, 37.88471156339665
920, 40.44103982872866
921, 24.74677217608223
922, 10.174946656272823
923, 5.2164818159690185
924, 10.278558853814957
925, 24.504163413888364
926, 37.5470536933708
927, 45.27641829304048
928, 37.8737808265123
929, 23.878974733737778
930, 26.779034374141247
931, 40.39345818171023
932, 52.82668589007517
933, 59.02170005910284
934, 53.97565072545922
935, 44.864241741754995
936, 36.79670974615283
937, 39.8888104135026
938, 56.235763553355355
939, 61.680351703406814
940, 50.86150725610787
941, 31.775551769392678
942, 8.615854379664142
943, -6.989399859354307
944, -11.694386984895573
945, 3.456313908746324
946, 24.39042149470697
947, 25.753351721072704
948, 21.822462488410565
949, 26.312839215388067
950, 29.850647879275584
951, 27.455311964144585
952, 28.238025656141417
953, 34.43572983181548
954, 36.19284026521791
955, 33.001563830177474
956, 33.58932355788056
957, 38.122113483817884
958, 43.53594897592484
959, 48.05182445136552
960, 48.70921341853182
961, 48.28008752586811
962, 49.910457358205804
963, 42.91502441618968
964, 20.912831057235508
965, 1.4839032252016295
966, -6.933526162043563
967, 4.992082467956607
968, 35.418801280135995
969, 54.60086679645701
970, 56.96186670372481
971, 38.292831557577756
972, 10.054558543316034
973, -5.614108172391298
974, -5.132784600523337
975, 15.247708541969587
976, 30.533881620293414
977, 25.327973240507163
978, 14.013505964851447
979, 3.0538198328522412
980, 1.1353484252394992
981, 7.38325748447005
982, 10.163461928400011
983, 9.219220112624498
984, 7.5586639809512235
985, 10.869803650313315
986, 25.794071120636545
987, 41.482242553639026
988, 48.384687390816
989, 43.27429526959395
990, 25.975772921315183
991, 13.31082520375594
992, 11.367349484925398
993, 28.333092469353232
994, 55.23628563241209
995, 63.20412743199631
996, 54.95730174975097
997, 39.63029588166228
998, 21.79572783054573
999, 6.0600091199435155
1000, -1.795007608456217
1001, -0.5389168446299664
1002, -2.8778344226720947
1003, -10.84295112298787
1004, -10.226226919503915
1005, -2.1307434997029304
1006, 1.1196493101347187
1007, 4.280810050612217
1008, 18.38635926636016
1009, 32.890511162913754
1010, 37.123769378055385
1011, 45.253499974313854
1012, 63.54616884040752
1013, 69.07022996960859
1014, 58.45913892940598
1015, 54.78620482845827
1016, 59.3391250022396
1017, 63.934603238916225
1018, 65.75208372671113
1019, 60.90381853053941
1020, 47.32692544107431
1021, 23.708068899823957
1022, 7.277623950926682
1023, 6.6793632647040795
1024, 16.73614971816596
1025, 31.064240712853007
1026, 28.46506874032275
1027, 11.765962935496646
1028, -4.452749301231961
1029, -12.178058290763147
1030, -1.6818983651919552
1031, 8.456333410272237
1032, 5.381752880310614
1033, 1.0970858204550495
1034, 0.1430393426971932
1035, 2.358963799000776
1036, 7.251732143941808
1037, 13.209634401940093
1038, 13.877085612882183
1039, -2.101977159060425
1040, -13.442006058040533
1041, -2.0412939999960145
1042, 14.286699567459436
1043, 24.735763980660977
1044, 9.386791833612278
1045, -25.49424308045718
1046, -35.476303298842595
1047, -24.345511363108017
1048, -8.506526257364385
1049, 6.388302747337548
1050, 13.697333043068738
1051, 4.386179956691194
1052, -22.86237145170935
1053, -31.766491242884513
1054, -18.660972592705093
1055, -10.683321248598531
1056, -7.936644519152651
1057, -3.633553090778605
1058, 0.8584456999255963
1059, 3.6393766380588204
1060, 9.84961719001467
1061, 22.489689836834714
1062, 38.77935595357894
1063, 60.79294813060187
1064, 98.26155652451598
1065, 153.81193461813154
1066, 212.69688298872734
1067, 279.2981779272909
1068, 358.69665553420555
1069, 444.79273208622317
1070, 534.5273232771074
1071, 629.9721297930387
1072, 727.0683229335
1073, 805.8450580591625
1074, 867.785194978228
1075, 920.8910191156292
1076, 957.2131367618608
1077, 969.2943709010156
1078, 976.1588008664321
1079, 981.8051356374572
1080, 946.6618878025083
1081, 872.2159747487963
1082, 795.3316208130077
1083, 718.5372746652533
1084, 640.4980509494703
1085, 561.8997443767298
1086, 483.31391633844805
1087, 405.13611865076246
1088, 328.96181976547723
1089, 263.49346664528684
1090, 207.74335022727473
1091, 155.0748632764121
1092, 96.50103680776692
1093, 31.49036181208021
1094, -10.77635304899286
1095, -16.90377841927966
1096, -10.604503733376532
1097, 0.07650718587956362
1098, 5.378981320749062
1099, 4.292285176764835
1100, -3.997078458672604
1101, -12.115104791550493
1102, -14.47154080643486
1103, -17.68743979940018
1104, -22.60362210451831
1105, -18.660029489127737
1106, -6.908376295069047
1107, 5.333771142103615
1108, 12.460431364697797
1109, 7.842018661171551
1110, -1.5839811980395098
1111, -10.051411958597328
1112, 2.0365177714388665
1113, 33.18482474465645
1114, 58.51023597426047
1115, 66.08270745547725
1116, 41.17088579276606
1117, 7.883641514698866
1118, -17.54139845633017
1119, -26.72259068718131
1120, -19.89993323905219
1121, -5.393008174663009
1122, 8.818886877554178
1123, 7.799360336768586
1124, 4.972872354715037
1125, 10.436173827640687
1126, 11.512080191919722
1127, 6.083955265614804
1128, 4.054924539789226
1129, 7.7834324079976795
1130, 20.39890010214367
1131, 34.98376679385501
1132, 45.94368164319849
1133, 48.819649478141855
1134, 45.3954423041414
1135, 53.902737707982396
1136, 73.62118761690999
1137, 96.89991239762458
1138, 113.95882056553182
1139, 116.39871402057133
1140, 108.98726336521759
1141, 96.44821226833847
1142, 94.80885452498933
1143, 98.7925265175677
1144, 90.96524828022484
1145, 73.4488639660708
1146, 49.60377394585021
1147, 34.58117715362505
1148, 32.5339340930791
1149, 35.662375035106834
1150, 36.18180787298252
1151, 19.830109717538562
1152, 2.0520455488967855
1153, -3.391880796453279
1154, 5.060690485863233
1155, 24.909920032962873
1156, 36.27080977295964
1157, 33.86296679310635
1158, 12.486046691671163
1159, -3.5508086637323686
1160, 1.7092917330814998
1161, 7.8115370399737
1162, 7.693435687797773
1163, -1.188634029448167
1164, -10.393265502728354
1165, -6.565288370941289
1166, 5.810239870678743
1167, 21.944301346451994
1168, 20.00285106927413
1169, 2.589197721120854
1170, -4.367406035727981
1171, 2.196747986851733
1172, 24.84879022508494
1173, 51.04296855006305
1174, 72.60721927724444
1175, 74.34971004417275
1176, 65.91791631877959
1177, 78.0559201923138
1178, 90.45735287183788
1179, 84.05764472976944
1180, 76.74308266495791
1181, 72.92752924225033
1182, 63.77089567659914
1183, 57.596884926802886
1184, 70.86810353315786
1185, 78.65688273807518
1186, 66.14659948952703
1187, 45.60413497705531
1188, 23.978892078956505
1189, 13.636849520617034
1190, 16.91170479759421
1191, 31.516260730868908
1192, 33.37260189524022
1193, 16.468638778691457
1194, 4.193526231796113
1195, 2.1114853614571985
1196, 13.106478708783015
1197, 25.091278180803783
1198, 28.748738318616688
1199, 16.16712957351683
1200, -5.264726594838066
1201, -4.525901532987973
1202, 7.690318963797381
1203, 16.579162896397065
1204, 26.147606103647377
1205, 37.91504616653947
1206, 48.95334308134352
1207, 59.18358400593661
1208, 69.15376608695624
1209, 63.85709351576179
1210, 37.09385244545365
1211, 23.458341737963565
1212, 25.737407115587303
1213, 27.60875985736402
1214, 27.20545757938544
1215, 23.477916849903522
1216, 12.800499943562954
1217, -0.7602701112909926
1218, 6.052704407748934
1219, 21.37321971691381
1220, 21.279875785275635
1221, 16.458450971117145
1222, 12.820201527727932
1223, 12.129134352164783
1224, 14.771640653577833
1225, 20.811319124173224
1226, 16.08691006634035
1227, -6.711596730434394
1228, -20.472884582917686
1229, -21.003613157226937
1230, -12.467536500648748
1231, -2.015494558196224
1232, 3.38880612201865
1233, -0.3369422855330413
1234, -9.029966821265134
1235, 0.049907329066627426
1236, 14.940838205341606
1237, 15.968375338576152
1238, 19.389887564270794
1239, 31.028108990929013
1240, 47.68679506677972
1241, 65.86670847863434
1242, 85.71374873075774
1243, 98.51054815425687
1244, 102.54770686793836
1245, 116.52932362155389
1246, 141.4064116189711
1247, 172.1496514159262
1248, 189.17494809654454
1249, 183.70196070710972
1250, 185.1177632673125
1251, 193.58231928345367
1252, 194.41042001804772
1253, 199.57724664020907
1254, 216.03386327279168
1255, 219.29437824916886
1256, 213.47349153698315
1257, 226.4774037535003
1258, 237.44723112945985
1259, 229.61568811940015
1260, 230.96992172947512
1261, 242.42177069732406
1262, 243.27116423075813
1263, 238.87045613654072
1264, 234.6701226729142
1265, 218.84399618678026
1266, 196.71401356957085
1267, 196.84304906331818
1268, 210.84604125907572
1269, 226.10194738907057
1270, 215.91833147214766
1271, 183.2971672677504
1272, 165.9953419138069
1273, 156.5875052064498
1274, 144.96205526862786
1275, 139.94936805879615
1276, 136.1443481269689
1277, 106.31598701896837
1278, 78.830777735835
1279, 89.66278954053087
1280, 92.17890896721747
1281, 82.55611744899807
1282, 86.92849866171446
1283, 89.73352594377911
1284, 76.05768386493128
1285, 70.06268903923319
1286, 72.0025358936141
1287, 61.464654929883636
1288, 49.639604140984375
1289, 45.94136975096444
1290, 32.47940537638715
1291, 12.91812334522001
1292, 11.48419335179915
1293, 18.992787982379923
1294, 25.609243430518745
1295, 26.24351019486994
1296, 19.246202047485895
1297, 3.6448598891211077
1298, -8.366353571830587
1299, -9.331353859549154
1300, 5.370407952930918
1301, 29.878983124931892
1302, 48.26886770812416
1303, 49.52395369201599
1304, 30.320385938963
1305, 5.949492340237384
1306, -14.12950305084405
1307, -19.772220319919143
1308, -14.080024508288034
1309, -1.989743252848939
1310, -1.7479895097064855
1311, -5.273708161039167
1312, 0.3415169752684051
1313, 7.63058965235723
1314, 12.492700384200134
1315, 10.933336411722394
1316, 4.526353499508787
1317, -3.920295145114096
1318, -4.672065114509451
1319, 0.11894752410989895
1320, -1.857490171607651
1321, -6.318782378182959
1322, -8.256824873117239
1323, 5.088234651451103
1324, 24.615660541193165
1325, 26.475144334498054
1326, 20.90889367647992
1327, 13.792930026243312
1328, 6.839193913956706
1329, 4.715967839828181
1330, 12.501943617698316
1331, 14.823420685155952
1332, 7.941297100514703
1333, -2.2915165706115204
1334, -6.151536396645497
1335, 2.3947660706764964
1336, 6.195537878048299
1337, 3.404846901379642
1338, -0.5260219965687156
1339, -1.0791117155608845
1340, 3.647990032038024
1341, 10.843217286579375
1342, 13.475440652356838
1343, 2.724082401310852
1344, -9.999830780643606
1345, -18.090166245947785
1346, -11.116805816265014
1347, -1.211808718316206
1348, 1.1070874441916203
1349, -1.9077530691965876
1350, -1.8828728074513492
1351, 17.26657992399214
1352, 28.81768723298569
1353, 22.313713132091607
1354, 13.909459277042515
1355, 14.07106638648861
1356, 31.678488938228156
1357, 51.48461973961935
1358, 63.52655046547943
1359, 53.76690866788408
1360, 36.2136285556237
1361, 21.64429056611948
1362, 16.989115495833175
1363, 25.50236234904628
1364, 45.387599858083604
1365, 64.3244244136065
1366, 74.98490425630916
1367, 68.44836672242263
1368, 49.235895324633475
1369, 25.9900132910891
1370, 33.84756621754491
1371, 67.14105882362128
1372, 100.3032959363652
1373, 112.37692189814607
1374, 104.79131467301136
1375, 110.30881887997543
1376, 117.08577486523677
1377, 115.29017644494343
1378, 119.74893927356516
1379, 125.52595854832407
1380, 119.77159531168513
1381, 118.40952456159766
1382, 126.25688426181091
1383, 137.60339063628726
1384, 149.53397875469477
1385, 157.99482705349624
1386, 148.38334415949862
1387, 129.23920279540357
1388, 118.77909717916327
1389, 115.92317408616213
1390, 116.14101332484779
1391, 107.15066802342426
1392, 89.46556322733431
1393, 66.67739971452147
1394, 54.34701695862395
1395, 42.11085399966578
1396, 14.433852277562664
1397, 3.471630689041149
1398, 7.841226155520189
1399, 3.008448167249526
1400, 1.5891599738986315
1401, 6.914324724185235
1402, -2.6701014556151677
1403, -9.877548476669062
1404, 3.034745290769024
1405, 9.836180458387389
1406, 9.117491925991771
1407, 10.956605446823232
1408, 1.5556984196321082
1409, -15.905514401953496
1410, -13.311589812412876
1411, -1.0834512231076587
1412, 12.141486554965013
1413, 25.015616649415733
1414, 31.915195893762075
1415, 27.02583402080245
1416, 25.917084046825494
1417, 28.53057122251994
1418, 24.62442037342953
1419, 14.156267448046265
1420, 0.9208399726599055
1421, -1.5757048378584386
1422, 2.9039648430284615
1423, 11.60950618942752
1424, 28.116626475585463
1425, 39.71573911252244
1426, 29.353065978198856
1427, 11.385265663163409
1428, -0.707339163848701
1429, 12.64853093246279
1430, 32.64683053533054
1431, 48.52998723352334
1432, 54.26333343603346
1433, 48.327671618575096
1434, 32.66194974564792
1435, 21.916218307860163
1436, 11.79519017295138
1437, -3.744627503784841
1438, -10.538925874230472
1439, -7.330984427305793
1440, 2.9654559926336788
1441, 15.349419216729984
1442, 25.530226934366056
1443, 28.91860542534664
1444, 35.36893962593717
1445, 46.509255093573074
1446, 46.689508777754554
1447, 34.10650669723441
1448, 11.786893407123216
1449, -1.1641954124320364
1450, -2.051137065392595
1451, 7.190945091358799
1452, 13.712809121714827
1453, 11.017507617440288
1454, -4.731651811144047
1455, -1.9033337713881338
1456, 20.562516565002852
1457, 36.0162270440494
1458, 32.55199750470865
1459, 12.722795947023542
1460, 3.44253333927918
1461, 4.879941538531284
1462, 13.853092217880203
1463, 21.93219536597735
1464, 22.727797120162677
1465, 14.052038653307136
1466, 15.275652291274582
1467, 15.565344645351388
1468, -0.662335152743708
1469, -1.01576046314608
1470, 12.476845342995375
1471, 22.638754893863734
1472, 37.63984906102132
1473, 51.86168576649038
1474, 47.20504728412152
1475, 48.54360333949057
1476, 61.097458504601036
1477, 68.30026154400844
1478, 77.6246127083084
1479, 87.65951266917955
1480, 76.23331191728721
1481, 57.22449778734767
1482, 40.74603423898702
1483, 22.760256624146677
1484, 8.018327083664644
1485, 3.1117199898314993
1486, 14.734884678841581
1487, 30.884400997147395
1488, 36.831044650600234
1489, 27.125600496256993
1490, 9.52647789387288
1491, -2.3050467024331738
1492, 8.672217631749845
1493, 26.892093767491133
1494, 21.795466452196024
1495, 8.859888199214083
1496, -2.842400710642778
1497, -5.504943817807543
1498, -3.412027502439514
1499, -0.4237533394291404
1500, -1.5106275132773135
1501, 1.9432720283339222
1502, 11.201624084208106
1503, 20.030882923548006
1504, 15.219890935212788
1505, 0.7236575713916409
1506, 2.5754775970638093
1507, 6.695943800622217
1508, 7.500503222505358
1509, 11.867726183068044
1510, 8.981220782262653
1511, -0.6017383454116043
1512, 4.814401722565435
1513, 14.460187589037787
1514, 19.378605663241842
1515, 13.756493456032103
1516, 9.393931858996666
1517, 11.353969851830698
1518, 9.79661312640178
1519, 9.625378994515586
1520, 10.682839692568905
1521, -2.9158690570629915
1522, -11.002915000668736
1523, -3.3280741760313504
1524, 4.0023092374383396
1525, 2.7751942726577
1526, -5.819540707487022
1527, 1.0633456934444894
1528, 17.774475932494624
1529, 35.52029464442239
1530, 44.522254024517
1531, 38.961207802145964
1532, 22.255877168929146
1533, 22.778371424144552
1534, 27.152098226528096
1535, 26.99264896593104
1536, 35.1590100355354
1537, 40.227761130193585
1538, 34.47525021505771
1539, 21.681819849414524
1540, 7.058678599468976
1541, -4.378688448627145
1542, -6.062469633162436
1543, -6.278504615388783
1544, -9.670111419942714
1545, -13.869945734685643
1546, -12.509735886729459
1547, -2.4509337451574993
1548, 14.72749470536337
1549, 28.801912285853632
1550, 34.139230971599545
1551, 30.057702186065853
1552, 21.308996225514193
1553, 11.35263953816866
1554, 3.472282431553822
1555, 0.48070919515134847
1556, 0.9328339840217268
1557, -0.6498766417983006
1558, -14.027863778879237
1559, -33.381514747286474
1560, -38.6816234907526
1561, -31.59977928002445
1562, -14.866876759239403
1563, 6.397454715156073
1564, 15.70880407164509
1565, 25.01843830039911
1566, 57.85202074111589
1567, 100.47383136646022
1568, 152.555489081097
1569, 205.0551641835334
1570, 269.6931897106765
1571, 350.09636994183734
1572, 446.3268496698279
1573, 550.8655709730758
1574, 653.8065912067373
1575, 752.8006585660637
1576, 868.5254319486576
1577, 974.3282016294083
1578, 1051.0378696195721
1579, 1097.7418712180722
1580, 1113.1769916011197
1581, 1099.655544025757
1582, 1064.5164952244133
1583, 994.2020471011626
1584, 894.5480381769742
1585, 789.703987072553
1586, 675.228100611723
1587, 552.4418850080492
1588, 426.8747213320778
1589, 304.6128023065644
1590, 203.3371381161994
1591, 138.43686061139942
1592, 81.94804885767917
1593, 39.34122700160151
1594, 8.818104316843801
1595, -9.800088272870653
1596, -13.167499740500489
1597, -4.599266654779058
1598, -3.031909852536046
1599, -12.310465745510328
1600, -26.195232677262084
1601, -26.673732057387042
1602, -14.210433419633091
1603, 0.4966708170181846
1604, 1.9427875786134337
1605, 10.247261407539554
1606, 19.19449500505698
1607, 18.00463148231279
1608, 15.413290472282142
1609, 5.792365167184016
1610, -8.349620577237147
1611, 0.9122546027058434
1612, 13.074962367294347
1613, 15.41245723312727
1614, 8.519577732651896
1615, 7.363203417711475
1616, 12.79260868356414
1617, 17.916409098971144
1618, 27.576895660369246
1619, 30.9165617485271
1620, 19.155010218688403
1621, 14.885302728755505
1622, 4.3813150808027785
1623, -14.771619966191793
1624, -15.851736508241629
1625, 3.0557481146606733
1626, 33.951276914120626
1627, 53.929706486951545
1628, 39.69030351540732
1629, 13.403112070976476
1630, 12.165030652339055
1631, 35.34168240594954
1632, 56.69574243028751
1633, 55.04340701041929
1634, 27.539059521482386
1635, 4.882270616825963
1636, -1.311144470124873
1637, 1.58111083108588
1638, 2.532742089504154
1639, 2.955684106457511
1640, 7.706893316512833
1641, 12.935403192998592
1642, 13.750573650775777
1643, 7.763849551742624
1644, -2.1283099611114267
1645, -2.7605971131160914
1646, 6.258165785225856
1647, 14.212970964123997
1648, 10.04047837283133
1649, 0.2397736757450275
1650, -6.379541155031802
##END=



