##NAMES=
##LOCALITY=
##RRUFFID=
##CHEMISTRY=
320, -9.503131297762593
321, 1.2290856891040676
322, 7.255237530403974
323, 1.258639901961942
324, -7.681459569620529
325, -4.7426380800379775
326, 5.984964911164752
327, 6.949525004559291
328, -1.9794884818302307
329, -4.954665390363516
330, 1.6003311892091006
331, 10.431049859614177
332, 18.079771337997954
333, 26.011423874217144
334, 37.40014206026626
335, 47.433333129511084
336, 42.81987256277171
337, 25.583834908907193
338, 13.02198608902836
339, 9.204935151866266
340, 9.805633880388996
341, 13.373839543102804
342, 16.601176741720337
343, 17.57251136855666
344, 15.927448010339504
345, 10.998688555482659
346, 6.602633791642802
347, 12.98461326256438
348, 30.131618128061746
349, 40.522668314081784
350, 40.381541754032696
351, 37.79947017779341
352, 36.94546216114213
353, 32.93118559877803
354, 20.222056857202915
355, 5.934737970700553
356, 7.746786528911798
357, 22.129269952706636
358, 25.79197546882915
359, 16.804332697884092
360, 10.677675299667499
361, 13.129391033604406
362, 14.224894038313323
363, 8.393352095727096
364, 2.619202090019826
365, 4.737534449341183
366, 12.645460376324081
367, 19.263762657563348
368, 23.857926014446093
369, 24.415123341359504
370, 20.921160173433236
371, 18.28024917492894
372, 18.111420240893494
373, 12.691006865921736
374, -3.3045007452446953
375, -19.70699060469633
376, -22.72231467475285
377, -16.45464976578114
378, -11.80152786367853
379, -8.153625165956328
380, 0.21052750092803763
381, 14.052211580083167
382, 17.992185359616997
383, 6.884716492419102
384, -3.0524655386698214
385, -1.1439525748401138
386, 6.078628457238665
387, 9.232535007468869
388, 9.079627739403804
389, 7.9087889367065145
390, 5.595057782036747
391, 0.7205296559841372
392, -6.56861180859778
393, -13.15833793296406
394, -18.512020513045172
395, -23.08090074059237
396, -27.272687622581543
397, -28.24213726407561
398, -22.13455368727591
399, -9.754878994745013
400, 6.799382885366867
401, 26.001676290262367
402, 33.52112333763398
403, 28.477785388449774
404, 18.27644452937784
405, 5.222349755212235
406, 3.6406705304571005
407, 19.90409105499748
408, 41.05538396327847
409, 51.82789130764559
410, 53.11769089255904
411, 46.52369900226495
412, 35.409638761404494
413, 34.33138553503704
414, 44.186546586616714
415, 66.81993277169113
416, 97.04793987025823
417, 120.8368855259614
418, 133.45108515609263
419, 137.15327972876275
420, 133.35034016125428
421, 126.01162992286754
422, 119.90911465856152
423, 115.88459148082893
424, 115.7860237049481
425, 117.50570874956702
426, 112.2654445456792
427, 99.28304244784522
428, 79.69997406421044
429, 54.124958312552735
430, 29.848635936377832
431, 12.722646483125573
432, 2.189313727533772
433, -1.9943729050046386
434, -1.2877674245992239
435, 2.997553569527554
436, 9.61252400286321
437, 15.24956996135279
438, 18.374081232469507
439, 17.282619485662508
440, 11.888549711203268
441, 3.0340217492657757
442, -8.328211845795522
443, -14.16249089320354
444, -11.514715544211867
445, -2.7308523758001684
446, 11.298120121458851
447, 26.802996984916717
448, 36.2020164180758
449, 40.16471785153408
450, 40.1955567923178
451, 35.90421635741768
452, 25.62363003810424
453, 11.599384752896185
454, 11.456193282356253
455, 27.1851660369648
456, 41.376964406596926
457, 48.6560095104569
458, 49.53944279648658
459, 44.31739532702704
460, 29.935898237205038
461, 3.389792472071349
462, -20.534340239427365
463, -19.30597018559274
464, -2.292368641426947
465, 3.5393737807289654
466, 0.5764293254032964
467, 6.277186682651518
468, 21.37406661643763
469, 24.891717904860343
470, 12.715495946778901
471, 1.4265138836881306
472, -2.243887772479866
473, -5.362526353521389
474, -12.686388854068355
475, -19.125859133121594
476, -18.644949051187723
477, -12.384939805595423
478, -2.014440779420511
479, 11.664007716500237
480, 24.455673119579842
481, 34.94914707236603
482, 43.9456973414226
483, 50.276155908756664
484, 41.94144056075129
485, 17.02089939576217
486, -3.422028069141561
487, -11.424089506934251
488, -11.849000459805211
489, -7.32143952041406
490, -2.2101654499456345
491, -1.114179379428606
492, -1.8815804309242594
493, -1.0436153861501225
494, 0.38387430492730346
495, -0.6423373773432104
496, -3.1834825082951284
497, -2.1608656062762748
498, 1.9252938530644315
499, 0.5435504568613396
500, -7.661262052019083
501, -15.5574573731883
502, -21.343908932058184
503, -23.797875661951366
504, -22.247574171949964
505, -10.130068355903859
506, 18.75565850266048
507, 56.05294792609038
508, 91.26812499625066
509, 117.08620538874584
510, 130.237033561898
511, 136.9909515213958
512, 156.43213958109027
513, 187.09434712222446
514, 216.20207705311532
515, 240.7117430855924
516, 249.7982235823074
517, 241.32800214900908
518, 216.62435236431065
519, 176.57190762939445
520, 135.7850306204191
521, 101.23817638777109
522, 86.06167655691206
523, 90.89893787988422
524, 98.8398314000433
525, 100.57247865393674
526, 95.70921057500891
527, 83.60128101031842
528, 65.3262637976868
529, 43.63075083195599
530, 21.34486675766675
531, 10.656563501201163
532, 8.615309518356298
533, -0.9606563361003282
534, -18.923457552080436
535, -23.48747877450387
536, -10.84889240272878
537, -2.1340880875277435
538, -4.0227998262362235
539, -5.3708674367117055
540, -0.6013607619725008
541, 4.3665375647969995
542, 5.305336182571409
543, 7.9521080686818095
544, 18.8265680404902
545, 30.747457457232485
546, 33.32899382639516
547, 29.731366205664017
548, 27.61868749417772
549, 27.67511718613696
550, 31.13119961562097
551, 35.738744302222585
552, 30.42572297742845
553, 15.75230082127382
554, 5.609716259223205
555, 2.9114096833900476
556, 3.725021709590692
557, 6.746621199240508
558, 4.988933327647828
559, -4.218223566443157
560, -7.167975484727322
561, 3.6550154745546024
562, 18.37792345017988
563, 28.39435674973174
564, 35.22947880231095
565, 40.52809162297217
566, 38.00035279340864
567, 18.088668658142524
568, -8.318248581746957
569, -19.135973556786666
570, -17.241834598578862
571, -9.551960757498819
572, 1.701744143756514
573, 7.7158131310943645
574, 8.763816577873513
575, 12.492076054082645
576, 18.647534294782417
577, 16.702619019781196
578, 5.409214013414385
579, -3.9562816097359246
580, -9.326585064454775
581, -11.86128793215812
582, -11.887748660084071
583, -3.5516882071515283
584, 16.720542012686565
585, 29.022339552538142
586, 19.858274363115925
587, 3.328134777249943
588, -7.581335021879568
589, -11.991702935460125
590, -7.937311552781466
591, 2.514440892316088
592, 16.39073233417912
593, 27.251041328733663
594, 22.13063989755483
595, 7.013730286447753
596, 0.11674852566375193
597, 0.9841603883096468
598, 6.999466162045792
599, 17.629468308669857
600, 28.03688208820313
601, 36.32951943493936
602, 34.1339930046488
603, 21.29804068953854
604, 8.212772675015003
605, -1.8088658979795582
606, -7.608684571489903
607, -9.321038779851733
608, -10.012082643965186
609, -10.712944013706874
610, -9.17953997483528
611, -4.289221021765115
612, 0.049208723083211225
613, 1.7627877508830352
614, 0.8706394821901995
615, -2.8239779317882494
616, -6.717003401522561
617, -8.492006374297489
618, -4.122061088532064
619, 11.720822118461001
620, 31.19378524766944
621, 39.36466784236654
622, 38.46482099718742
623, 32.72714051894127
624, 26.52186149663612
625, 29.301502454116417
626, 35.479778254995836
627, 29.13590950174148
628, 14.027756657083046
629, 6.685653610446934
630, 7.827067332739716
631, 18.678640812066078
632, 39.07241640659504
633, 60.511791995927524
634, 80.25957967495196
635, 87.25217486047131
636, 81.69499420609463
637, 78.58090949404232
638, 79.34861975094918
639, 69.2267249511724
640, 45.832471804380475
641, 23.652959088995885
642, 9.31630690181646
643, 2.193632622518635
644, 1.8424884466694493
645, 8.103132357136928
646, 20.945593055626887
647, 20.930209743782143
648, -0.1893794721154336
649, -16.342242536770755
650, -14.917985430696717
651, -6.638758808795501
652, 2.3661199395328367
653, 13.706944030056547
654, 27.66359542270311
655, 33.74708448306501
656, 22.823839521915943
657, 6.362710410934596
658, -3.3141457513720525
659, -7.307457670417534
660, -6.174526595634234
661, -3.9130437070734843
662, -5.898310436099564
663, -7.389757449207536
664, -0.8134278035540774
665, 6.549090573581452
666, 0.6621225545395646
667, -8.981021708543267
668, -4.17669115987519
669, 7.185101482211394
670, 5.84346387588721
671, 0.6390786885685884
672, 13.179807721138786
673, 34.14912943688523
674, 35.40268746428319
675, 21.620978390581513
676, 11.850824559986904
677, 6.733048277584203
678, 4.72506422963761
679, 4.407515520938432
680, 1.926193114729358
681, -2.540135809452295
682, -6.291852930336063
683, -8.503540460810655
684, -5.56247505169631
685, 2.757456916222509
686, 14.779504348825867
687, 26.976816993666034
688, 24.047877273889753
689, 7.437514198687495
690, -1.3102170306938206
691, -1.076127512014864
692, 0.21879887436625722
693, 2.1165316215656276
694, 9.946138458676614
695, 23.70205557418285
696, 29.937253741262793
697, 28.283315487627988
698, 34.83010793390167
699, 50.206079947734
700, 51.72169282442519
701, 36.573237280917965
702, 24.481381145780688
703, 18.76889408447005
704, 9.195005888585001
705, -6.367777046678384
706, -11.604879443174468
707, -2.646645235890901
708, 19.507406766335407
709, 54.82237180724769
710, 82.17946329263668
711, 96.34460045830656
712, 97.75682018963744
713, 86.82747174048836
714, 66.96684337425631
715, 40.39045515040743
716, 22.128958107611652
717, 18.167832103128603
718, 19.448637693906676
719, 23.532086042473566
720, 31.415355570185966
721, 40.40705871931186
722, 43.754511835913945
723, 39.33380685158136
724, 26.577120074002778
725, 7.2607336688643045
726, 7.752721584394749
727, 33.32982748923678
728, 47.77973487132931
729, 41.220431978756096
730, 27.24311861320166
731, 9.988373299019258
732, -9.821558930007996
733, -31.759529185342217
734, -27.197174499024186
735, 9.399901433283048
736, 32.39305266439624
737, 28.273366368115603
738, 18.2712917107865
739, 8.221774883683793
740, -3.497666399370246
741, -16.933595586802767
742, -14.343692312686471
743, 6.340663247555312
744, 13.220375415326998
745, 0.15099236622972967
746, -9.257184363996203
747, -10.467783011587017
748, -7.012213084552968
749, 0.07087720051276847
750, 6.652131593406011
751, 12.293991771915898
752, 16.296069340880422
753, 18.780121236769446
754, 20.692165862017646
755, 22.03962940324527
756, 21.58118713201293
757, 18.297826267543314
758, 7.239194523702281
759, -9.07189170694528
760, -16.755074778300695
761, -15.327955640158507
762, -11.382119429659724
763, -6.437902358089559
764, -4.522401447228731
765, -3.8120238118099223
766, 5.918851186557731
767, 24.019387095253478
768, 38.02852689016436
769, 46.86560726255084
770, 51.34455044666811
771, 51.26511863012456
772, 45.667292213313885
773, 36.83187252270636
774, 32.143666946207304
775, 31.428746683332065
776, 32.684216641645435
777, 33.16660481764575
778, 26.17640722883425
779, 14.522048921957321
780, 6.877210785914031
781, 1.9527522271882845
782, -2.4128548053222403
783, -3.9142015342777086
784, 2.420594758610605
785, 14.006501413822662
786, 26.589755103696007
787, 38.80817851016127
788, 50.82621701503922
789, 57.6219780454976
790, 52.91636507515068
791, 45.7676452443593
792, 45.98781267243248
793, 51.07162926899127
794, 58.675994419682866
795, 62.33148239176808
796, 56.905066528413954
797, 42.481118139730825
798, 19.357295856489145
799, 3.774553882127293
800, 2.3491605054623506
801, 7.133930347407841
802, 14.411307136934738
803, 16.918820317207974
804, 12.390469580029276
805, 10.901050835994283
806, 16.59728911941147
807, 19.492337934879288
808, 17.081269823380353
809, 12.339781961089102
810, 6.3077606960196135
811, 1.683761539081388
812, -0.9755967753080768
813, 1.7636983520997092
814, 9.083042322612528
815, 11.341914721313515
816, 8.139386338310942
817, 4.673764302920063
818, 4.465172907126544
819, 19.58801463063446
820, 41.522275724857536
821, 42.98781673533722
822, 27.170545097977993
823, 6.336144756062822
824, -12.291399799074497
825, -18.426339965169973
826, -12.122200506254558
827, 7.609755219573344
828, 30.00888071882673
829, 37.40394259824643
830, 31.490516698758256
831, 14.165008330455748
832, -1.7827234124843017
833, -8.53299440619594
834, -4.611874113419617
835, 11.484939942492929
836, 29.18169704193315
837, 41.08690986354486
838, 50.28060354297668
839, 57.70877716690302
840, 58.316270519699174
841, 51.40897672884421
842, 47.11130519843482
843, 46.18849109034181
844, 34.5615195375658
845, 12.585865377955997
846, -0.4982278213974496
847, -4.693708972376044
848, -6.699218806966201
849, -7.553500918672398
850, -7.760498602885491
851, -6.380795479479275
852, -0.7371948635336594
853, 7.7463310728780925
854, 14.951572307337301
855, 18.448410677739957
856, 14.714269558974593
857, 6.387418932563378
858, -2.819327439902736
859, -8.037625588433912
860, -4.995196304409546
861, -0.4314622825022525
862, 1.8784037334498862
863, 9.159775661863023
864, 24.712517503598974
865, 34.29879390106089
866, 33.773788338865415
867, 30.446207685904483
868, 25.773356260717264
869, 15.903477607768764
870, 2.1889627020300395
871, -4.187419389926617
872, -2.881400600337656
873, 4.063297082634563
874, 12.733174128399696
875, 10.499218497991933
876, 0.7751987014025872
877, -7.873509842139356
878, -14.1390806952013
879, -15.762441391104403
880, -7.610409688651998
881, 16.702065738300917
882, 39.44402941954468
883, 46.74138192908504
884, 41.75398256025892
885, 26.791152484531267
886, 13.914617739109417
887, 9.157214177281276
888, 10.896781320922855
889, 18.509808650075684
890, 27.474043253964737
891, 35.224650645408474
892, 32.52909592929791
893, 22.390421670781507
894, 19.386399112111576
895, 21.49953071971504
896, 20.831774167159892
897, 16.363848582284845
898, 6.953227717130176
899, -2.96569622707284
900, -9.885449104504914
901, -9.867303710982924
902, 0.5449761417721675
903, 10.549348546005604
904, 13.63186671665153
905, 11.17112667051515
906, 4.605455339404216
907, 3.8753776190051212
908, 10.079184051658558
909, 15.173602733100779
910, 18.648985536834516
911, 29.136534905622284
912, 41.46556678214256
913, 38.0043555082957
914, 25.265231850345117
915, 18.216016034830318
916, 10.44695301388947
917, -5.980465083134732
918, -15.760878294378017
919, -5.630492347628206
920, 10.374443832727593
921, 25.227799506255906
922, 35.77145122926413
923, 41.192120308577614
924, 41.43603969425476
925, 36.195599078187115
926, 23.75005233302909
927, 8.84649071738204
928, 11.23678494761225
929, 22.99708469953748
930, 18.309834421087544
931, 5.69047001708077
932, 1.5116396764651654
933, 1.0363662252420909
934, -0.4166684636475111
935, 5.350595283321127
936, 23.716244085144353
937, 38.69643448763327
938, 44.09817660760018
939, 43.94747478755926
940, 39.35461546749957
941, 30.32871780300684
942, 17.281234988158758
943, 1.7773420101684678
944, -9.969334057937886
945, -4.760828162402504
946, 6.983405503101494
947, 8.348169365408467
948, 4.149145188613147
949, 0.27742872108683514
950, -2.255980211856695
951, -2.469590579446958
952, 7.112192005813085
953, 27.808477335580392
954, 37.986050924974734
955, 33.67762624906845
956, 19.154492130845938
957, 0.645349948808871
958, -4.706914032201894
959, 0.5049926281062653
960, 10.728505549341207
961, 18.952850957092778
962, 17.399392514406827
963, 7.535333759676178
964, -7.927753399450921
965, -8.969700284805185
966, 10.2680862050438
967, 22.59044265493958
968, 21.903979904658627
969, 13.225725772770602
970, -0.3021044849356258
971, -11.21354394890568
972, -16.32056123667917
973, -9.080735884000205
974, 4.0503925477978555
975, 16.241471403073774
976, 26.014914869057066
977, 32.403193063060826
978, 29.915101540254
979, 16.640136129535676
980, -5.989077339482719
981, -31.287727781084868
982, -30.42724309157802
983, -9.292141134825215
984, 8.47296986735455
985, 21.320603882473733
986, 25.359388062649487
987, 19.340064271208576
988, 2.7461595704007777
989, -5.458114704971194
990, 1.7793119274965647
991, 8.776507414018852
992, 11.24253572415364
993, 8.01674336103406
994, 3.2967474963461427
995, 11.893223485863018
996, 30.53634554612745
997, 51.249181906995545
998, 71.58993305209606
999, 92.32626045431789
1000, 108.51934856008393
1001, 117.86952100549661
1002, 127.33781164266293
1003, 136.9819875068215
1004, 132.8012755301388
1005, 111.57831593565061
1006, 70.78685653429329
1007, 26.37165406902568
1008, 12.27804432631001
1009, 10.108003532875045
1010, 1.1199915221341143
1011, -4.876230862680131
1012, -3.4725045733594015
1013, -8.222566039285994
1014, -17.794167952539283
1015, 3.6059166437489694
1016, 46.78010336785337
1017, 55.64402092547061
1018, 44.172676131884145
1019, 44.23124161029773
1020, 47.008486712743434
1021, 44.219260341273184
1022, 47.57742364472779
1023, 60.47891555781462
1024, 58.7701319122998
1025, 41.89218518892176
1026, 38.308890761564726
1027, 44.456979276769744
1028, 41.36082551376148
1029, 29.434469826992427
1030, 10.711901446785305
1031, 2.212761147641686
1032, 13.029328520979107
1033, 23.961919639771622
1034, 26.208020648915408
1035, 19.794034414039743
1036, 7.037925256537164
1037, -3.361699703062186
1038, -4.064599016761349
1039, 18.925714053753836
1040, 37.482406612364684
1041, 26.099151437345427
1042, 10.512905321253129
1043, 2.0061937331374793
1044, -5.913596771686571
1045, -13.230265221806803
1046, -10.373533308938931
1047, -5.111766876320871
1048, -17.01725847626676
1049, -28.53228648118511
1050, -19.90225073120564
1051, -9.196572829971956
1052, -5.268066894220283
1053, -5.149123871829033
1054, -8.807125057905068
1055, -19.853672588975314
1056, -35.49152083143326
1057, -47.056785998912346
1058, -51.70031030491464
1059, -45.82599477369786
1060, -36.703302469126356
1061, -27.676193832687204
1062, -16.10131296001873
1063, -2.464775331148303
1064, 4.410975380658783
1065, 14.18280824041176
1066, 51.92366440166461
1067, 116.28925211863861
1068, 206.6582757524293
1069, 328.28643114787883
1070, 455.26768006776183
1071, 554.7828115731645
1072, 625.1456143053974
1073, 696.5114619763071
1074, 769.1110332366752
1075, 836.0674542149573
1076, 887.4572203441903
1077, 913.20061331947
1078, 898.8268560864226
1079, 841.0592910478663
1080, 768.0636181749369
1081, 683.9175512922111
1082, 580.82562551908
1083, 463.99228827181105
1084, 343.6256757164874
1085, 225.4383581825341
1086, 136.64892339347625
1087, 74.73883016236141
1088, 33.75364196731607
1089, -2.841342985841038
1090, -35.27777023159433
1091, -51.80268683567101
1092, -57.04539945055603
1093, -56.36641791058082
1094, -49.413343803738826
1095, -36.29687314489547
1096, -25.72805082361083
1097, -18.72892868278177
1098, -12.397844981974231
1099, -12.959475177547574
1100, -33.78591624215369
1101, -45.07397246101209
1102, -23.558936811034073
1103, -4.965973816058067
1104, 1.2289695655108517
1105, 12.310453848141151
1106, 21.51702767841107
1107, 4.4637587798788445
1108, -15.382596437856591
1109, -12.243006383961983
1110, -3.8306397966416625
1111, 2.65876819434925
1112, 16.11903793509464
1113, 33.81331475479692
1114, 41.12679236756594
1115, 37.12233221789484
1116, 22.41011408522354
1117, 14.15829408602076
1118, 22.453330562622796
1119, 21.141802589348117
1120, 7.044741581543349
1121, -3.3310840870408356
1122, -10.062849390029442
1123, -15.240649183159803
1124, -14.542929314538014
1125, -4.5739816122559205
1126, 10.288803327357527
1127, 27.918577547883615
1128, 38.333526908009844
1129, 41.955442979688996
1130, 42.15391681625897
1131, 35.39012413023738
1132, 19.549961512607297
1133, 14.263627783487209
1134, 23.95051354439329
1135, 41.57333700277286
1136, 59.59768164853176
1137, 69.17559732733662
1138, 74.21471364954687
1139, 78.24851829245927
1140, 75.10979672054054
1141, 64.45933160710592
1142, 57.282802737237944
1143, 54.49089822944825
1144, 54.36073064490938
1145, 54.77740301828635
1146, 53.58451424370378
1147, 45.34679456187223
1148, 29.028957543741853
1149, 9.829710841152519
1150, -4.554968456812276
1151, -2.790308340039701
1152, 1.702204779377098
1153, -1.9652590605574005
1154, -6.602763012088872
1155, -9.402661001784509
1156, -7.417157215215411
1157, -1.3398430882807588
1158, 6.879247849275089
1159, 11.860513650220128
1160, 9.740435255343982
1161, 2.3986499096163243
1162, -7.330132514024626
1163, -12.207543522245942
1164, -13.204148004501803
1165, -12.610349626909738
1166, -10.234754102631086
1167, -5.850941234573838
1168, -0.043063735293799255
1169, 8.302750987918444
1170, 22.555614469568354
1171, 31.380932429204222
1172, 21.773664030215514
1173, 17.879680866326453
1174, 28.61915895375205
1175, 47.13292983060728
1176, 67.95164529674821
1177, 88.23378278435302
1178, 99.59159599074064
1179, 95.57989857718349
1180, 96.09930102927683
1181, 103.91405463535102
1182, 99.25426535530005
1183, 83.39804445888149
1184, 63.063934571372556
1185, 41.75866377546845
1186, 22.083107579121133
1187, 10.385404749315057
1188, 3.711776239117171
1189, -7.369678590291187
1190, -13.47025066191145
1191, -2.972612489747007
1192, 3.3131494391618617
1193, -1.5685683660258292
1194, -8.568785847820436
1195, -16.410610632238786
1196, -24.74503029308471
1197, -21.815901524392757
1198, -1.741773633457342
1199, 1.7634397121610164
1200, -9.485129369025344
1201, -0.07660490899070282
1202, 20.188071106048483
1203, 34.97083347576063
1204, 52.448163082414794
1205, 70.77239177436604
1206, 60.946978754076554
1207, 33.82213107763528
1208, 18.81102827764971
1209, 7.543157410483218
1210, -6.464637316024891
1211, -6.712217747937757
1212, 6.756463135973718
1213, 22.553456562526662
1214, 31.425650274158215
1215, 25.68199358540187
1216, 10.954367610976988
1217, -7.410918952174143
1218, -15.742079907609877
1219, -13.67440212260135
1220, -2.0901343577115767
1221, 6.155783783198785
1222, 4.44334922917551
1223, -4.342541437649743
1224, -13.606688753952767
1225, -9.010789868818392
1226, 4.964707013275074
1227, 24.524842202950822
1228, 36.99141350332593
1229, 39.14859065057135
1230, 30.54511668682244
1231, 18.83675113319714
1232, 11.737603740943996
1233, 11.47743374323727
1234, 17.615981530500903
1235, 26.02390486881086
1236, 31.204694616182678
1237, 26.4704700909615
1238, 17.35384720062757
1239, 7.780873454739776
1240, 6.2047558855992975
1241, 11.481396356182813
1242, 20.514015756340996
1243, 24.242022377287867
1244, 19.6137940126564
1245, 13.883338141585227
1246, 12.310853943256006
1247, 19.972175069578043
1248, 27.96608191692576
1249, 31.15583831587719
1250, 28.78638542085355
1251, 24.648389180923914
1252, 30.728960729979008
1253, 44.12258239766925
1254, 61.59884988372232
1255, 58.65022096040411
1256, 36.92161580255288
1257, 17.59781729997212
1258, 5.8986744851363255
1259, 3.342397623373472
1260, 18.091232062711242
1261, 39.072024968500955
1262, 26.80161757743008
1263, 6.801060966196019
1264, 4.826518669808138
1265, 0.4913474956611026
1266, -6.051846819644197
1267, 5.919010210766828
1268, 24.47532963611866
1269, 34.97541354796613
1270, 48.05180855059825
1271, 60.284455336936844
1272, 49.23404442724859
1273, 27.99875111311576
1274, 11.923272774634825
1275, 2.1162940733693176
1276, 1.404617756301377
1277, 22.461224346964627
1278, 36.77037356343135
1279, 17.146615934213514
1280, -1.1117783066474658
1281, -8.94177152575412
1282, -12.656697841933237
1283, -2.470746363436774
1284, 29.018939005808534
1285, 36.215065901088565
1286, 18.513429050983177
1287, 14.289474668942603
1288, 15.06422941941264
1289, 11.46444626723951
1290, 7.910132301577505
1291, 4.520186196846225
1292, -4.0332365732069775
1293, -4.786691565378533
1294, 10.95263964416381
1295, 23.362538566545027
1296, 27.216752010271648
1297, 21.473050577613776
1298, 10.657870142901174
1299, -0.8530568963888072
1300, -3.7876490040184763
1301, -0.7575486735004233
1302, 0.1330394002866342
1303, 3.3477927030626233
1304, 9.737996165350523
1305, 6.903936923913989
1306, -2.5993146578716733
1307, -11.406775396307694
1308, -16.829242950708704
1309, -15.669812608301982
1310, 2.0074759966623787
1311, 18.746687330232362
1312, 9.111744436916524
1313, 0.7445544408024034
1314, 2.88603053832594
1315, 12.680319037722256
1316, 22.49558186153081
1317, 24.62694903316651
1318, 10.752440584218675
1319, -9.808384551784911
1320, -7.498513347662083
1321, 6.8235773574319865
1322, 22.25072352578036
1323, 14.163573054313929
1324, -7.4754064827761795
1325, -15.060659010021482
1326, -10.989619722277439
1327, 1.6259438829747523
1328, 12.687830667970502
1329, 16.054741090155403
1330, 6.863400996408018
1331, 5.205413641333962
1332, 13.733151257492864
1333, 18.24156889051983
1334, 15.024731602829888
1335, 3.6326999981429253
1336, 1.3143771466102407
1337, 9.960834159834576
1338, 25.869838026396792
1339, 32.4169130417572
1340, 21.88087339040294
1341, 0.31118915344723064
1342, -17.03828298714143
1343, -12.089982210702146
1344, 2.6631459109544267
1345, 20.551381416199092
1346, 30.282318496929292
1347, 27.134896221777126
1348, 10.462492981562264
1349, 3.509735751406879
1350, 4.068158543253048
1351, -0.7550296693984819
1352, 2.6479028794033184
1353, 19.256471546617377
1354, 36.187676863844445
1355, 46.17033409699934
1356, 42.71188085405993
1357, 29.758512177422745
1358, 11.072479642608869
1359, -5.336272104796535
1360, -11.105155766120788
1361, -2.8890916727114018
1362, 6.285329647473191
1363, 18.18403616887872
1364, 35.74789154683822
1365, 40.658423311100705
1366, 29.48605487376335
1367, 12.389567959749456
1368, 5.521608469176044
1369, 15.180949070749193
1370, 14.320048189978479
1371, 5.614432766493792
1372, 2.226645883828496
1373, -3.263137550356987
1374, -7.596243146790584
1375, 11.527859119170898
1376, 36.75730563616389
1377, 51.42072622357864
1378, 68.13983454147228
1379, 82.62959584239161
1380, 83.43316275473808
1381, 76.09971836834347
1382, 61.99029074205373
1383, 37.93216869816251
1384, 17.67085052229004
1385, 12.41714632812409
1386, 10.1932864275891
1387, 12.715499006405025
1388, 25.72945755792489
1389, 26.846502994114417
1390, 13.60754227357711
1391, 2.594064595902637
1392, -2.1061060581705533
1393, 0.0009128420656452363
1394, 3.720225773462971
1395, 4.23526058589141
1396, -3.7982810814737604
1397, -7.792433963360963
1398, -5.985975474216048
1399, -3.1004638981680728
1400, -0.19772883518362505
1401, 0.8194918982790114
1402, -7.137618182557162
1403, -12.836271496253175
1404, -5.215051915525237
1405, -2.6082217317343748
1406, 1.135970440015626
1407, 25.119072498206606
1408, 34.21699127223201
1409, 19.620866430092065
1410, 2.2152757302410464
1411, -8.419560542301497
1412, -5.1765335183617935
1413, 27.173270892063556
1414, 65.50446240775273
1415, 75.60637055003872
1416, 61.60912741678385
1417, 30.95388901763863
1418, -1.8220861023378347
1419, -14.836058337159557
1420, -6.530186515793048
1421, -3.8039829145900512
1422, -5.2055795512114855
1423, -7.110125133800921
1424, -4.986038759946496
1425, 0.525653408569724
1426, 7.343378631417181
1427, 12.090982325930781
1428, 16.15222591171323
1429, 26.423071366419208
1430, 33.868431209983555
1431, 33.850111806203586
1432, 25.140198175773094
1433, 14.089845697144483
1434, 5.5767761063571015
1435, 1.3438236528022571
1436, -2.9722060847379907
1437, -11.157895587934945
1438, -10.547629793460146
1439, -1.7937587883761807
1440, 8.374095550206675
1441, 13.29256867029926
1442, 11.874714754471825
1443, 7.900415870039069
1444, 4.060021743261132
1445, 2.071304460367628
1446, 6.42969363003931
1447, 20.686706502986453
1448, 43.38938194172215
1449, 56.746944467888625
1450, 54.84748861257867
1451, 35.732700131964066
1452, 15.18683751354365
1453, 1.5641315169500558
1454, -1.2174106403040241
1455, 8.388055774755685
1456, 25.707424073729726
1457, 34.433652871584854
1458, 38.14116030748164
1459, 35.74283383974716
1460, 16.32425322495783
1461, -0.10697383092110613
1462, -1.8771589712887362
1463, -1.3787803343134328
1464, 1.0995984333626438
1465, 6.107672705710229
1466, 8.146622796387419
1467, 9.542759953589666
1468, 14.452941934495811
1469, 21.167306685684252
1470, 27.754387956057144
1471, 34.77443120689986
1472, 48.57168672973057
1473, 65.33717032792902
1474, 71.38352508266826
1475, 59.63209999473111
1476, 33.87420999646565
1477, 13.400099768608925
1478, 6.801575631353899
1479, 15.454845335802474
1480, 35.48838766554172
1481, 51.41151107766518
1482, 56.221997271972214
1483, 60.60432754499243
1484, 53.09559618943376
1485, 26.705818485330838
1486, 5.397343280430505
1487, -5.3308723099562485
1488, -6.695607591728276
1489, -8.49715092375618
1490, -10.904231543696369
1491, -11.714579085465175
1492, -12.578365202346049
1493, -4.10448199187158
1494, 26.72330558789372
1495, 38.345640015108984
1496, 34.252924154085576
1497, 42.5757777584231
1498, 45.20174196837843
1499, 42.89985933406979
1500, 49.33534228196913
1501, 32.6393202379536
1502, -0.6686318548750023
1503, -4.483197099648351
1504, 9.455993261271942
1505, 25.907105384089846
1506, 15.050594819541402
1507, -0.3271031425242654
1508, -7.420089534581621
1509, -4.084599763219103
1510, 9.29577058062796
1511, 23.67017326444602
1512, 9.772514237049563
1513, 0.6186605624134245
1514, 9.86065373107158
1515, 12.651525296258114
1516, 13.377553081586484
1517, 13.709581683373926
1518, 4.4584360423446014
1519, -3.731236254579926
1520, -5.676772777508177
1521, -6.678324993950355
1522, -4.0471247990203665
1523, 1.2304092676636174
1524, -4.8133866234943525
1525, -8.055271042912409
1526, -1.5169256763774683
1527, -2.0267072820520298
1528, 0.08393676391415283
1529, 9.300479059321788
1530, 8.558982284135709
1531, 8.05426788385239
1532, 12.064099417123543
1533, 2.5344602447185025
1534, -3.247235790388004
1535, 5.715520519403071
1536, 23.162037999356016
1537, 34.22170751249496
1538, 31.713006218380997
1539, 23.436305457704293
1540, 12.942503998618122
1541, 2.7517471715696047
1542, -4.102109672488041
1543, -10.535680071173829
1544, -17.703460603641815
1545, -22.610638673872927
1546, -17.129877177123944
1547, -0.1655512116431055
1548, 16.443373813561266
1549, 31.09848327013742
1550, 40.967735473021094
1551, 38.917241522848144
1552, 35.915441139243285
1553, 32.795443749894275
1554, 17.66138254799216
1555, -3.272862171237648
1556, -20.409453033058526
1557, -19.559009740447436
1558, -13.453972528675877
1559, -10.514821147137354
1560, -18.49281640723939
1561, -34.670267464074186
1562, -49.050920991037856
1563, -45.48327644920346
1564, -34.82737676368879
1565, -24.991916809186023
1566, -21.44952147582444
1567, -3.649599207223673
1568, 22.308648039426316
1569, 44.271193696172304
1570, 72.63022360833475
1571, 114.02968739116477
1572, 175.8556112122692
1573, 269.49772153146114
1574, 368.87530330433174
1575, 460.87328320509096
1576, 521.6920173182225
1577, 580.6964507256762
1578, 642.9563322633958
1579, 654.3050454334289
1580, 638.8213400590967
1581, 608.0756958916254
1582, 553.9540446740093
1583, 491.5612155569256
1584, 421.93370904162794
1585, 334.8782872891247
1586, 244.31538890695947
1587, 157.53860912523487
1588, 93.65975991781215
1589, 34.99630308861197
1590, -11.370382558337496
1591, -31.2734765876271
1592, -28.599395999261105
1593, -19.75831953251327
1594, -18.64656742703437
1595, -26.83944941337495
1596, -34.247488368406266
1597, -33.6579371654575
1598, -22.546736801398765
1599, -11.14961871935111
1600, -3.6312663173039255
1601, 0.2909371073146758
1602, -6.95361926092437
1603, -16.24020725634864
1604, -8.7243057163505
1605, 7.2267564107023645
1606, 25.044647340069332
1607, 35.65261980327796
1608, 30.691927156445217
1609, 12.394954592312843
1610, -9.779538054580371
1611, -11.747865494316102
1612, -2.6435065805685554
1613, 10.106543093382697
1614, 19.71023048701818
1615, 13.765316966038881
1616, 0.3034965670658494
1617, 0.6331779475854091
1618, 18.530357783317413
1619, 29.98500668892484
1620, 13.217497612291027
1621, -3.8487607948700315
1622, -1.627191797157593
1623, 21.654354862253058
1624, 35.17866502357356
1625, 31.26408906164079
1626, 13.21475102734712
1627, -5.35285071096223
1628, -4.163698908231709
1629, 1.6084515818779437
1630, -9.522921792735815
1631, -6.582251950896534
1632, -2.5521242484373943
1633, -5.228858846932326
1634, 6.461262894593801
1635, 13.621045394039811
1636, 18.534125652780858
1637, 44.643335842381475
1638, 31.780362454214355
1639, 3.7915361103164287
1640, 7.969815551581178
1641, 7.899400921351571
1642, 20.366650394677436
1643, 40.18398996882888
1644, 1.479380554670115
1645, -26.916550112663117
1646, -25.817130767170056
1647, -12.642896091299008
1648, 15.03394107637223
1649, 31.709074739334028
1650, 13.482547663444166
##END=



