##NAMES=
##LOCALITY=
##RRUFFID=
##CHEMISTRY=
320, 6.554332154808435
321, -3.9827709282253636
322, -12.508808602950921
323, -14.161707338249471
324, -11.528856833455393
325, -8.597099955068188
326, -4.7983293450170095
327, 1.6097835995715286
328, 10.40511839032115
329, 11.754833842937842
330, 3.4843245074871447
331, -1.6649177694480386
332, 2.5924180187284946
333, 9.537067127959745
334, 9.867265496619439
335, 6.501823517791308
336, 8.218111085946475
337, 14.971511062482932
338, 21.690990511651762
339, 27.360291048484214
340, 26.545287546815416
341, 17.186892168781924
342, 5.1066548358758155
343, -4.394439505111222
344, -10.95888659612774
345, -12.822096795536709
346, -9.445712511007514
347, 2.136458449055681
348, 21.25552003885241
349, 28.07864376438374
350, 18.16328196323775
351, 6.161114656119935
352, 0.23767643485280132
353, -2.180003307656989
354, -3.576278675523099
355, -2.2169519836515974
356, 6.534512515519964
357, 21.275928725139238
358, 28.85001465770256
359, 27.953395371409897
360, 24.20366120874678
361, 19.367218959742786
362, 16.675595951742253
363, 19.826836893354084
364, 24.507186471609202
365, 27.094243214002745
366, 27.68253569263652
367, 26.5962407166935
368, 23.823452653942695
369, 19.181544576313172
370, 13.03961211715523
371, 12.93432345682595
372, 20.921345338943865
373, 26.94637846436126
374, 24.971202621056364
375, 17.916049247889532
376, 10.07524196855502
377, 4.121682757566305
378, 4.221630220571569
379, 10.257512853567277
380, 20.20504425485342
381, 32.11503211104082
382, 38.40164882289082
383, 36.448705248507395
384, 26.063415083724067
385, 7.1152440588712125
386, -13.699883531375235
387, -30.01353608473346
388, -40.17712466176181
389, -36.311669670714764
390, -20.39901749870205
391, -6.741354827506257
392, 3.2975402146612396
393, 6.326018397064217
394, 1.136515200757458
395, -8.50922457366596
396, -21.401030348063614
397, -30.544763240346583
398, -26.83294499038857
399, -15.888702485853173
400, -10.694800611212486
401, -10.333363419740635
402, -10.38471826604109
403, -10.417102220259949
404, -11.319919068468153
405, -13.281431440595043
406, -12.612343021929519
407, -7.4062019456978305
408, 0.04720433315651462
409, 7.93538946397166
410, 18.366977082873746
411, 34.73920128053396
412, 58.84996520833465
413, 93.4813302194998
414, 140.6095158659391
415, 181.16391026896144
416, 213.85775090009156
417, 245.57525341308065
418, 278.64481809013796
419, 312.35345913531455
420, 346.2578739369101
421, 376.4249086035161
422, 398.1261286162726
423, 410.01625516043987
424, 409.1287056463161
425, 394.71751145024155
426, 364.2102113514793
427, 319.3908919432688
428, 276.5784393493295
429, 238.85202465091152
430, 197.48230664971652
431, 149.1039167876488
432, 100.90130457327541
433, 68.015280091352
434, 44.34239154827628
435, 23.769696527067026
436, 6.941653852125455
437, -1.3655849946644594
438, -2.5074869375448543
439, 0.034306603938603075
440, 5.087097233814347
441, 4.627469911399203
442, -2.8223048277186535
443, -9.351259657910305
444, -12.226322086400614
445, -8.891087645065454
446, 2.9189449876012077
447, 21.03524462223777
448, 43.089263701646814
449, 65.37405491087702
450, 84.41931703382033
451, 98.68896342431526
452, 102.86266463708944
453, 97.61260323094848
454, 91.02880538063891
455, 84.44591233746814
456, 75.0005261652741
457, 61.86145490716444
458, 51.00832240420368
459, 45.796320911843395
460, 38.90265586780697
461, 23.121568680554446
462, 6.689342101783041
463, -1.8141332055802195
464, -4.707595076809412
465, -7.035681616730471
466, -8.972929816996839
467, -8.951745018526708
468, -7.535322610152434
469, -11.908685869612782
470, -23.665796544478326
471, -31.124687794906094
472, -29.95166261529721
473, -27.87799737255318
474, -29.902573800756727
475, -30.133277319201625
476, -21.598564519694264
477, -10.052056892415749
478, -7.0355931691547084
479, -8.691752553041624
480, -3.129139979269894
481, 9.13624617408459
482, 19.287804055993547
483, 27.797850365273007
484, 43.849776220985405
485, 66.17915220287887
486, 83.91283856414975
487, 92.7917534979515
488, 97.25577629100007
489, 100.12767020229421
490, 98.99487747976218
491, 91.30072910301442
492, 75.90316313254516
493, 50.82138715758356
494, 20.214213580640717
495, -2.404562187245574
496, -17.787086740567247
497, -23.74569924282241
498, -21.54542502899858
499, -19.00732966436044
500, -17.610584768205626
501, -18.911109880330514
502, -23.307541905270227
503, -21.622085330061964
504, -8.959655983298035
505, 4.1596743089558
506, 9.879795990917955
507, 11.369927089996963
508, 12.061193300525701
509, 12.998154733037154
510, 16.171973829297713
511, 25.376971917690753
512, 51.81781879185564
513, 94.68264676457056
514, 129.51561722208226
515, 155.45266090815494
516, 184.2553619607952
517, 217.3267283261257
518, 240.74469339026837
519, 250.34871811900484
520, 254.07403614567284
521, 255.66709347435153
522, 250.6182266662745
523, 235.68898577770142
524, 216.65957625379906
525, 200.01477793693812
526, 184.75323946997923
527, 169.15674598185979
528, 154.23423995310532
529, 142.6045780390923
530, 132.93971903252896
531, 119.81530206579737
532, 102.88829296962922
533, 83.11763639811124
534, 60.732073447482435
535, 42.51636898946799
536, 27.412271302098816
537, 23.493557279845845
538, 33.5422786269919
539, 51.557836645316456
540, 75.76309905304242
541, 96.87650062584271
542, 111.85218081821495
543, 123.43449544069517
544, 134.66533875191362
545, 142.15060358580104
546, 140.370426801318
547, 131.52125803186755
548, 120.87493372062181
549, 108.62103123843917
550, 94.68176268597654
551, 81.20800415979375
552, 78.38553028871047
553, 83.72421410212701
554, 70.608202819707
555, 36.261660855309856
556, 10.484213522627215
557, -2.0136609733754085
558, -1.69326234115033
559, 11.540318439940165
560, 28.164292627938266
561, 41.1748249196271
562, 47.376495810895904
563, 44.365980923927054
564, 34.615636958808864
565, 20.79176000201005
566, 8.94285875773312
567, 9.152379480021409
568, 12.93023392422765
569, 1.4107769985694176
570, -17.518298705900634
571, -22.207660087367003
572, -14.973957423432694
573, -7.759083941718927
574, -1.9329330284026582
575, -1.368743703454129
576, -5.902605433449935
577, -10.157221269711044
578, -13.30369695488298
579, -15.162255915784044
580, -15.592681413419086
581, -11.14424761056307
582, -0.3743280942653655
583, 6.0394263493290055
584, 2.3748151737809167
585, 2.7393952025340695
586, 16.40428172918928
587, 28.76665776171376
588, 26.967297386155224
589, 18.615543011024783
590, 13.008947679245466
591, 7.473155864601722
592, -1.6160862998749508
593, -10.34946895118901
594, -9.289428778298316
595, -0.6212938690150622
596, 9.34335459207432
597, 18.82425567476912
598, 22.75016440287982
599, 20.75820462997126
600, 13.225392926630775
601, 1.3686586394178448
602, -7.556155121419579
603, -13.056196783588348
604, -14.174987459482509
605, -11.06771788538299
606, -7.777042473895563
607, -5.123625139907745
608, -1.3042166205805188
609, 4.537685556362703
610, 10.730495738728678
611, 15.681458627242137
612, 13.217804306505968
613, -0.10469567741984065
614, -13.381911517056324
615, -20.116799880415783
616, -16.56986664755823
617, 1.6346151676152658
618, 24.82790833666877
619, 39.47765310603427
620, 47.752634329586726
621, 52.84310272337734
622, 54.0983428955833
623, 50.29657558214967
624, 43.99701924502824
625, 40.901067892217725
626, 37.45863915273094
627, 23.58162787225683
628, 4.909577415363856
629, 2.1537493481619094
630, 12.124121034607015
631, 18.040205949797382
632, 17.193933170908167
633, 11.221209668143274
634, 1.5447148857056163
635, -4.508082164074949
636, -6.146583453841231
637, -1.9728831652337249
638, 7.3821151383463075
639, 9.455965540153557
640, 2.32351819179803
641, 0.02502356553213758
642, 5.95750223860523
643, 14.67295827826183
644, 23.30004492966509
645, 27.568335544110596
646, 25.832725199727975
647, 20.496975477759406
648, 12.777700050854037
649, 7.891696367211807
650, 7.546793062226243
651, 14.131974617430387
652, 29.812479668926244
653, 44.16731467564114
654, 50.48146639223614
655, 55.604381653490236
656, 65.50040172367153
657, 66.46595544611318
658, 44.53829465148738
659, 15.03027641929657
660, -2.411334012086627
661, -9.549138223041155
662, -7.165237706442895
663, 1.4052941746804208
664, 11.468959385770177
665, 18.052402229456675
666, 12.771226176677374
667, 0.2627518641284041
668, -9.96386942051322
669, -13.815019590007978
670, -0.9129889186515356
671, 20.02271363087675
672, 23.41868475888532
673, 16.17098431509021
674, 20.420085833141457
675, 29.5471279045114
676, 19.672487055786405
677, -2.2287460592551724
678, -7.617370313951142
679, -1.1754981066233086
680, -5.961012068804848
681, -16.11437370045769
682, 1.7322329518719926
683, 41.981163042521985
684, 55.93006155208877
685, 45.89329737477692
686, 50.595326459598255
687, 69.9888220351404
688, 77.19498107215713
689, 70.98315865230961
690, 66.45419963130826
691, 65.08285081118629
692, 61.26780108742605
693, 54.74570641478749
694, 50.14518116845102
695, 48.032250904057946
696, 46.34803557799205
697, 43.5176139361065
698, 30.534625352533112
699, 8.107045474073857
700, -1.5084703243655895
701, 3.4875673426504363
702, 5.946859202908854
703, 2.811021703865663
704, 1.516813336234918
705, 3.1792351486501502
706, 1.4456181918194488
707, -4.327019614360324
708, -2.1812476002833137
709, 10.347465611967891
710, 22.62037497761594
711, 30.474111652045394
712, 35.54616451633228
713, 38.136642109158856
714, 36.299566539761145
715, 29.646946101151116
716, 20.35387361145422
717, 9.297956666000573
718, 0.33733033515181887
719, -6.036563390162883
720, -3.9775226391830074
721, 7.477251228093337
722, 12.772201357091035
723, 7.825153151008635
724, 3.5759735084257045
725, 3.345636808702693
726, 1.5564169122408202
727, -2.7778968077836907
728, 1.8325182497637797
729, 17.69442969128886
730, 20.957782010639676
731, 5.927336474876029
732, -7.131989207031438
733, -13.568572920945371
734, -13.983844836983735
735, -8.438733895898622
736, 3.235694274508205
737, 20.884953945558664
738, 30.189204845313725
739, 27.716015905187305
740, 19.670537672719547
741, 9.024049601252045
742, 9.915277553856868
743, 24.369392269140917
744, 35.13662596983795
745, 37.71414544995423
746, 29.289379775674206
747, 11.50050471124996
748, 6.418038096359851
749, 15.336514287065256
750, 11.069480496558754
751, -9.065311090418618
752, -20.024843312377016
753, -19.329552634043466
754, -21.23459487463515
755, -26.282986492760756
756, -17.811648655132558
757, 3.2915184388139096
758, 7.847032985579062
759, -3.800041627785504
760, -1.5954154719447615
761, 17.235160762341366
762, 41.191468097684265
763, 64.21938132020387
764, 74.7583096958133
765, 73.01297535644426
766, 66.98593399558104
767, 57.308386652496665
768, 42.547092963689465
769, 25.994061519016213
770, 23.2907326275199
771, 30.597027409201473
772, 28.95690496975567
773, 22.20711503962866
774, 28.943349048973687
775, 42.50541637071001
776, 46.9772623812587
777, 43.6469271324504
778, 38.277605602931544
779, 29.22512970670141
780, 12.050914972159262
781, -5.2169520631068735
782, -9.90644213260748
783, -6.039723826860609
784, -0.5386178903527252
785, 8.76854468104284
786, 25.70322559777651
787, 44.13312686435529
788, 56.480285213171555
789, 62.25389287298185
790, 60.91346457052623
791, 51.268822160273885
792, 32.03846383572818
793, 12.272212008518181
794, 1.5740998515575484
795, -1.2777110136685224
796, 3.255154995965313
797, 9.244522543318453
798, 12.956514746285393
799, 14.600378500435
800, 14.922121976453127
801, 16.896626602719152
802, 21.811978591327716
803, 24.43092544024603
804, 22.547397024211023
805, 17.178741266268844
806, 8.93110039968451
807, 1.791062238498398
808, -3.662356108629865
809, -4.630666146063504
810, -0.7198315241121236
811, 5.22628282158621
812, 12.43445426276503
813, 16.08388509590941
814, 16.79356034920238
815, 22.07584476182228
816, 29.3867815615331
817, 22.697576605283757
818, 5.99939979913097
819, 1.084921564598062
820, 7.298776582926621
821, 19.082533200351918
822, 32.361383181096244
823, 39.936538684155494
824, 41.558252754912246
825, 37.38818671062154
826, 29.003794325447416
827, 18.99212075638843
828, 10.251579228944138
829, 7.6037895566046245
830, 1.211412787052268
831, -19.61206830980973
832, -35.40143842572115
833, -30.075164465137277
834, -15.152978644418909
835, 2.8505585653510934
836, 21.0044756608645
837, 38.58898570156862
838, 52.19202717881399
839, 61.235019477539936
840, 65.26916924516763
841, 64.39975740962154
842, 61.236235470203155
843, 55.57700706994183
844, 40.824660424710146
845, 18.50059269110261
846, 6.4357493419392995
847, 2.8884033872436703
848, -5.30335570955549
849, -15.293347413341507
850, -11.234930758222163
851, 1.0707253778477934
852, 3.597360427585045
853, 2.0157971629828353
854, 8.807726016914785
855, 18.25072263296488
856, 19.20741218325975
857, 16.894036671105823
858, 17.405343831499067
859, 19.355499411236906
860, 21.489179520409834
861, 17.41375056606239
862, 3.422422409295905
863, -9.536248282507586
864, -17.49309464453836
865, -17.863849127043522
866, -8.36420238917026
867, 23.77545601458678
868, 79.27038824056035
869, 114.07295155106931
870, 123.6185228839172
871, 127.36969936487367
872, 127.32795406117293
873, 120.6004906363537
874, 107.35888609112908
875, 88.84983917770433
876, 67.24542939564435
877, 46.85834207006155
878, 28.259795265123557
879, 14.942446825156367
880, 5.807521495819856
881, 0.16988009762553702
882, -5.415771466166007
883, -13.497713211483187
884, -16.524944776913344
885, -10.440488310940964
886, 1.8717318617427736
887, 19.270093983207516
888, 30.116265103542446
889, 31.748954895850147
890, 28.377771027553536
891, 20.968767316416688
892, 10.145285676253934
893, 0.09176017744675846
894, 0.40310610601090957
895, 5.496698594964528
896, 0.030634536279194435
897, -7.274465983493428
898, 0.06884021136238516
899, 18.035675983463534
900, 40.536911168939696
901, 53.88658583393817
902, 47.327457204537495
903, 29.8497542540249
904, 7.186862570815265
905, -4.911254576465581
906, -2.9909152628083575
907, 1.5078502314063371
908, 5.138002273769416
909, 3.091074881287568
910, -3.2260270031824803
911, -3.7386864443310515
912, 2.820523513007174
913, 17.449320392419395
914, 31.227900970062365
915, 27.13071751079906
916, 15.177758058470772
917, 9.226631111291226
918, 9.129358364924883
919, 13.852729719170839
920, 21.178286046184894
921, 28.134095207937662
922, 33.50669865564714
923, 36.850779207025425
924, 38.33301537866919
925, 38.314686218805946
926, 38.66285874644018
927, 39.396472019544944
928, 39.44740682263728
929, 40.46398926194388
930, 46.78387333439014
931, 52.497580363833094
932, 47.61683750501152
933, 31.468985071336192
934, 3.7258003966740034
935, -14.64634930520424
936, -12.612831511389686
937, -3.5343266425525144
938, 7.1213248649251
939, 13.629215967351684
940, 13.830221534362863
941, 10.345381851764614
942, 5.518129188146759
943, 7.1289730566204526
944, 10.777045598283166
945, 5.328672063901649
946, -4.23392495544158
947, -11.13526879543997
948, -9.816368041771511
949, 5.452485363669439
950, 20.378857406900806
951, 25.27560035291617
952, 22.290067847744467
953, 13.583902751409369
954, 12.339807246190958
955, 19.85299983330151
956, 28.414912584597005
957, 35.30985314043255
958, 34.975912982637965
959, 31.975321303515102
960, 35.626022296635256
961, 38.213683577874235
962, 30.735237512140884
963, 19.94362948724347
964, 10.498368413765093
965, 6.190246832064986
966, 7.469489964641525
967, 12.084736984528263
968, 16.67563340854076
969, 10.705260787113275
970, -2.37457683077173
971, -7.392356773283154
972, -2.412780294395361
973, 15.58843745171771
974, 33.29123446431822
975, 35.71209012232066
976, 30.552990023902566
977, 22.503587385808714
978, 7.881326969250495
979, -11.11467732077881
980, -13.040217989791017
981, 0.30839423217366857
982, -0.47758435807463684
983, -11.162827162173471
984, -11.616843448126474
985, -2.9716760279898153
986, 12.2051816101457
987, 34.24624210522006
988, 60.30358666969187
989, 68.16982560357837
990, 48.925290479004616
991, 27.212790721295278
992, 15.026834085485007
993, 23.519458590880276
994, 51.213593525505985
995, 81.87159005768171
996, 105.01322078572366
997, 103.09700185621296
998, 87.60337333477219
999, 70.7523727646053
1000, 50.52594370759516
1001, 26.24461441835092
1002, 7.047989497239541
1003, -6.856823108417757
1004, -16.724255814385288
1005, -22.087617198706994
1006, -18.566026386598878
1007, -10.029446566877596
1008, -4.604561782115979
1009, 2.2851082394754485
1010, 15.650436116161927
1011, 26.63346854830479
1012, 30.29447237937211
1013, 25.50972582558643
1014, 13.141968365592675
1015, 0.5045679585400649
1016, -8.599701643364824
1017, -7.0208419249520375
1018, 1.544033726908765
1019, 10.11764012086087
1020, 17.750795700315393
1021, 22.072222935674745
1022, 28.601757574283056
1023, 38.60157976423943
1024, 37.16986943847496
1025, 23.50768245562722
1026, 12.96682010552422
1027, 9.77734349104503
1028, 15.919293545480741
1029, 32.219130839461286
1030, 57.053566012231386
1031, 70.06578066446536
1032, 57.86969255825534
1033, 34.103834023565014
1034, 6.546440185633401
1035, -5.11791735253928
1036, -1.550821246828491
1037, 6.724631738912649
1038, 12.970179009239018
1039, 4.3730029227385785
1040, -8.555527957468712
1041, -17.627284810184847
1042, -22.741518772861582
1043, -23.34779871182036
1044, -14.046406290787672
1045, 5.636443030335158
1046, 30.110341902322034
1047, 51.82550682993633
1048, 57.39740069808977
1049, 45.35980485824848
1050, 15.204872574592173
1051, -5.663843062338401
1052, -6.322399548162593
1053, 3.650059071077976
1054, 18.632303071756724
1055, 19.33169323440734
1056, 6.662220302906917
1057, -10.782078283012197
1058, -21.604119038902354
1059, -12.24063922633377
1060, -4.143050622424653
1061, -8.241391372051112
1062, -15.405135187791984
1063, -22.428782007044447
1064, -24.155968507365742
1065, -17.381505584447495
1066, 4.706719012890517
1067, 25.64849495645467
1068, 23.976492632416466
1069, 26.701863654125646
1070, 46.361836466304794
1071, 75.7269745579265
1072, 106.53953106891595
1073, 133.6037571921447
1074, 156.1351265733192
1075, 173.74842376102333
1076, 187.33292259338623
1077, 197.36647013392712
1078, 191.76111194079203
1079, 165.05565855743134
1080, 118.3541069131702
1081, 64.01234460364549
1082, 51.93516612850226
1083, 69.10407778955141
1084, 83.18819892507645
1085, 88.1585810740894
1086, 79.7914118983872
1087, 59.421661371814935
1088, 30.80987899495676
1089, 16.665746979558662
1090, 14.271209021025697
1091, 10.930481862345914
1092, 2.512137167715082
1093, -15.422119771678808
1094, -27.781285672651848
1095, -26.764273300242166
1096, -16.540498441611362
1097, -1.429129450700657
1098, 2.8355265774321197
1099, -2.301743405574598
1100, -11.118117100651489
1101, -18.550670115053435
1102, -20.590829133135685
1103, -17.764412264386465
1104, -11.363337162230437
1105, -9.354541275830798
1106, -6.61698749021798
1107, 13.597159356846078
1108, 37.939699741718414
1109, 46.2576584194162
1110, 41.947327776777456
1111, 28.4681595739562
1112, 20.397074377382523
1113, 19.031759642867655
1114, 17.70829581130738
1115, 12.630964573007077
1116, -0.9545723934684247
1117, -9.022779070708111
1118, -4.3087203417976525
1119, 3.5992982948787358
1120, 10.14612142068745
1121, 4.472467762666383
1122, -7.501670926380484
1123, -14.76071947973196
1124, -12.594791499438543
1125, 2.05754061143125
1126, 14.89727899866557
1127, 20.770643807053148
1128, 20.954243473753195
1129, 20.273699777572347
1130, 28.444797757602373
1131, 34.944849147404966
1132, 30.741020202273376
1133, 20.292214322890686
1134, 10.61532363643937
1135, 18.719123933097308
1136, 40.122496298904935
1137, 55.15769002232037
1138, 59.07612991974929
1139, 48.80359863174681
1140, 36.55315540646188
1141, 29.495708681961332
1142, 44.545086037156125
1143, 64.38221288215982
1144, 51.751453900336855
1145, 25.899575954987085
1146, 5.909191126355836
1147, -1.0069551527471958
1148, 5.751253787675978
1149, 20.695569056762906
1150, 29.10634458862114
1151, 2.572226873281579
1152, -23.547435047121326
1153, -22.595364690995666
1154, -11.751519996507795
1155, 3.0275649569407506
1156, 17.906426705436843
1157, 27.999326350998217
1158, 25.886439080625678
1159, 26.85527265059136
1160, 40.20025478507068
1161, 39.82578329048283
1162, 21.70373963033535
1163, 1.0109380248600246
1164, -12.987775186120416
1165, -9.473703998075962
1166, 7.122289079950406
1167, 32.519707832523636
1168, 38.940508444553416
1169, 29.043274385078803
1170, 32.803886461357706
1171, 36.29465678389306
1172, 19.47947503674368
1173, 5.84735281512576
1174, 4.525086717381328
1175, -2.537201840504622
1176, -9.888971493902318
1177, 5.085337813476144
1178, 18.25342764465404
1179, 6.236209122059336
1180, 0.9250303351273033
1181, 10.059679942286948
1182, 21.66844762541359
1183, 32.0432906682222
1184, 39.12124997382762
1185, 31.720663092877203
1186, 5.378551691595931
1187, -14.588843987212385
1188, -20.723157176770655
1189, -3.0061527366833616
1190, 20.896412124610833
1191, 27.64669605633935
1192, 22.5355425312664
1193, 8.481014006114492
1194, -10.073327023088495
1195, -22.477232532074595
1196, -5.839233796807093
1197, 14.616036528348104
1198, 22.717608010440927
1199, 35.398183091478586
1200, 51.6998508690026
1201, 61.692847420183625
1202, 66.46726857110389
1203, 68.44068351515125
1204, 70.52048474450521
1205, 73.84300397631705
1206, 77.83886724906597
1207, 80.10822579600062
1208, 76.12326076387171
1209, 62.91826201912363
1210, 40.11056554740526
1211, 21.524851445099557
1212, 12.989718438156615
1213, 14.644806031193184
1214, 18.090537569024036
1215, 13.769461437794234
1216, 17.329293322708054
1217, 27.07612891943654
1218, 19.31567240490358
1219, 1.944973555427623
1220, -8.4328159908805
1221, -14.95274205028818
1222, -17.64162741541668
1223, -5.1900977395052905
1224, 11.447977186798198
1225, 1.940283738043945
1226, -9.559557123284776
1227, -7.797997045986449
1228, -8.004912255202271
1229, -12.0742740700598
1230, -14.529070162930566
1231, -15.312591683142728
1232, -14.05784097328933
1233, -2.7492699763279234
1234, 16.350372610903833
1235, 20.068870454991156
1236, 8.958559059399704
1237, -11.9873395665104
1238, -15.959410967292115
1239, 1.824903571334744
1240, 8.783623729926148
1241, 3.398945044928496
1242, -7.952289425091749
1243, -12.557711543170171
1244, -3.9592200018041694
1245, 16.01214797010016
1246, 39.15879364743478
1247, 44.06186870196643
1248, 41.37174781334534
1249, 40.86318434806526
1250, 66.5477307505057
1251, 103.18953084103987
1252, 113.68720834884562
1253, 102.57850783845788
1254, 75.86736545813619
1255, 46.30657799116125
1256, 30.01925748404574
1257, 48.16414036413562
1258, 78.13224335777068
1259, 94.07347024062983
1260, 107.8554120346289
1261, 121.71271290518916
1262, 132.4481241116291
1263, 136.6184242895606
1264, 131.2836450428572
1265, 117.84126492508994
1266, 98.56466449262598
1267, 79.4297205707453
1268, 65.0167612678024
1269, 65.50267970183859
1270, 67.99342548976938
1271, 69.4140577967969
1272, 66.18569679618895
1273, 52.159990198921605
1274, 22.79869792603131
1275, 0.8131517101019199
1276, -9.054644437861043
1277, -6.170162559087203
1278, 2.8997706380200725
1279, 11.264469157483745
1280, 9.547206987535446
1281, 1.1438440341416936
1282, 6.083646439705262
1283, 14.54488282291095
1284, 14.545765398553613
1285, 6.558449330629173
1286, -4.494106557385749
1287, -7.304401207544743
1288, 4.749359422432917
1289, 34.823195841025154
1290, 46.61595933544413
1291, 33.976136431250325
1292, 6.260151689861232
1293, -9.08645824786845
1294, 3.7861241461182544
1295, 17.518037675935375
1296, 22.164617409384846
1297, 11.05330309520059
1298, -5.976531762153627
1299, -20.257339151124597
1300, -15.597864388018934
1301, 0.5058035523229591
1302, 6.484378044768619
1303, 9.028334756454115
1304, 12.03200184433581
1305, 19.69053888449662
1306, 26.275650890459474
1307, 21.20515305040817
1308, 7.114877681614871
1309, -11.041926238119686
1310, -21.614031535101276
1311, -23.06854180593109
1312, -14.932868531906934
1313, -6.922434676220291
1314, -2.3756139354691186
1315, -1.9933086150840609
1316, 3.502257443927192
1317, 22.198173954609047
1318, 35.91585431521435
1319, 39.82832838200329
1320, 34.26332569925444
1321, 37.863030542110664
1322, 58.26223610320176
1323, 54.88280391517674
1324, 31.84392089610219
1325, 12.691669840945906
1326, -0.11526112461615412
1327, -3.0635162656967623
1328, 25.526570493418603
1329, 58.69950716864241
1330, 56.63820138685696
1331, 35.7150608414895
1332, 8.162742901875845
1333, -4.248470347088642
1334, -4.045900852952855
1335, 5.1272454494023805
1336, 14.613016284367404
1337, 17.581435055512884
1338, 5.461832877145753
1339, -0.6575241447990265
1340, 5.968543008578763
1341, 0.771916149532899
1342, -8.308829566686654
1343, -6.278921248289407
1344, -4.312674710052761
1345, -5.661780583064683
1346, -7.872500410314387
1347, -8.659245081134486
1348, -5.830040373416978
1349, 3.4329273087928414
1350, 16.554880442729427
1351, 24.68495171176346
1352, 20.81584759423231
1353, 7.0185075765703
1354, 9.367428608304635
1355, 22.027305814468036
1356, 33.04994176065975
1357, 42.572007417636996
1358, 48.41475429848197
1359, 44.7745777364471
1360, 38.413163152320976
1361, 32.742535169310486
1362, 20.745218037753148
1363, 6.096138706317106
1364, -3.1464167072308555
1365, -3.061568650504796
1366, 4.99366411758956
1367, 12.111608748039544
1368, 12.042292545807868
1369, 3.168634472508984
1370, 1.259473310359681
1371, 3.899706019119094
1372, 2.650807280173467
1373, -3.574146544903215
1374, -11.232642951762045
1375, -5.861117972420743
1376, 7.662457975965026
1377, 23.38274222709515
1378, 26.87578935604961
1379, 23.816932556018855
1380, 28.175977241185592
1381, 29.418637176336688
1382, 24.334759937127274
1383, 16.73234646410583
1384, 2.633770138088039
1385, -16.552812041148627
1386, -11.330379342315155
1387, 8.65337773815645
1388, 19.619780939175598
1389, 26.356962269582255
1390, 28.62816045270074
1391, 18.952764643838236
1392, 4.044234993994905
1393, -7.932352670439286
1394, -2.290615714629439
1395, 6.604623587307287
1396, -1.884839757692589
1397, 7.214610659992559
1398, 30.077363152302496
1399, 26.025531135034043
1400, 27.77906124611127
1401, 44.73782924041643
1402, 29.416554906811143
1403, 14.175889066090349
1404, 36.151188008375584
1405, 48.94397723737234
1406, 47.62770472504303
1407, 43.14449996694725
1408, 24.248946551680547
1409, -3.8291245070067816
1410, -7.858380215300258
1411, -3.636359146920313
1412, -2.390803769885224
1413, 5.846947873866384
1414, 16.686578421442846
1415, 20.77236676818916
1416, 21.435811742917167
1417, 21.64247169601208
1418, 25.320811620126506
1419, 15.807224187809652
1420, -6.182847671828085
1421, -8.739675845844886
1422, -6.713504249343259
1423, -10.104217639674062
1424, 5.35250360875466
1425, 21.35574756406595
1426, 7.656119608841436
1427, 3.5407489535493823
1428, 14.123381499987318
1429, 27.554169385420437
1430, 31.940149356801157
1431, 27.68689673977292
1432, 31.998508724119347
1433, 38.17270961335157
1434, 41.396341168109984
1435, 47.550336946576635
1436, 43.17070027909858
1437, 14.99348453539983
1438, -3.095280318863388
1439, -2.8910039266036165
1440, 18.355553232947386
1441, 43.58120746575992
1442, 61.09998632661063
1443, 63.56341790112697
1444, 49.770415534236236
1445, 23.32970810044708
1446, 0.40534014062654933
1447, -12.685205559952692
1448, -13.596795711151572
1449, -2.95681413644229
1450, 7.043767805693733
1451, 3.673191402814382
1452, 10.378757868487583
1453, 20.25275357737928
1454, 12.253011957885974
1455, 5.2799568449243
1456, 0.8638320920192655
1457, -14.979406447639121
1458, -8.897925387471787
1459, 21.887357582963205
1460, 25.357301706003682
1461, 20.314324173854402
1462, 19.449807627228665
1463, 7.7094136465570955
1464, 3.378804994763641
1465, 18.925945389567005
1466, 16.75748977732269
1467, 3.3917088422699635
1468, -3.610457916612404
1469, -8.905207017574412
1470, -8.282484269703218
1471, 7.285309675431563
1472, 23.4519462633275
1473, 35.068757596240175
1474, 44.324760463284065
1475, 52.57438140428121
1476, 57.04224348649245
1477, 48.33289256980197
1478, 36.72693701947446
1479, 28.23153335783195
1480, 23.023182632188764
1481, 16.11360309370002
1482, 6.218354447267075
1483, -5.0652370195114145
1484, -6.768460249626514
1485, 8.97286743890254
1486, 31.077230412831568
1487, 37.75688991390848
1488, 13.490379348293573
1489, -5.122212413762782
1490, -7.919650736856738
1491, 7.430839918924903
1492, 25.9374135210885
1493, 30.239442791242936
1494, 3.95062641787581
1495, -9.376807713078733
1496, -6.319517159651696
1497, -0.43620047532658646
1498, 19.78991180998969
1499, 42.82067325966091
1500, 36.859566553734794
1501, 28.143511682467533
1502, 21.0338798128937
1503, 1.5094652984453205
1504, -0.34921523018351763
1505, 16.30222695750558
1506, 17.870251380950776
1507, 12.427234047373076
1508, 4.701313081055787
1509, -5.007344109488258
1510, -6.095624014191799
1511, 1.9250620337970759
1512, 1.3767894255108786
1513, 0.4949809229551647
1514, 4.394804593047866
1515, 11.793548256103577
1516, 21.7172668298831
1517, 30.064925365748422
1518, 22.17485963604986
1519, 6.492673841181386
1520, -6.415927945417479
1521, -4.193563744203175
1522, 0.3711679413636375
1523, -0.06747386234724218
1524, 2.9523883481135726
1525, 1.4686346600478828
1526, -6.450384985609389
1527, -1.9267781001287858
1528, 2.4307341689454915
1529, 1.688446057289184
1530, 18.94476244705038
1531, 34.53236998066586
1532, 34.6959827894957
1533, 27.52340468087641
1534, 9.337681729458154
1535, -12.876814711513134
1536, -3.637456185702149
1537, 5.200286813775165
1538, -4.557443585702913
1539, -8.212627524869049
1540, -8.348650096044821
1541, -6.587681356258827
1542, 2.6920788270385856
1543, 8.515040848267745
1544, 3.9270820854430895
1545, -7.187640710566484
1546, -6.548087419405647
1547, 6.458476130189865
1548, 0.47937821394043567
1549, 2.734614828734493
1550, 24.67446875717542
1551, 52.00586964091917
1552, 69.85590580053031
1553, 69.09233756315984
1554, 43.88359248271922
1555, 16.349808971867333
1556, 0.20934427227371089
1557, -1.08404436085425
1558, -7.388096318443786
1559, -16.009774315274626
1560, -6.72603739911051
1561, 4.358710318996373
1562, 7.037976632015443
1563, -6.614620106271786
1564, -9.602550729450968
1565, -4.03115188648394
1566, -2.9907622876523874
1567, 0.7091675508754633
1568, 5.450728828498313
1569, 9.576346909435642
1570, 30.848795149568105
1571, 36.58172254185479
1572, 1.961002852880938
1573, -11.655921665937058
1574, 2.1829255472673594
1575, 37.77568077147998
1576, 69.05690732463222
1577, 76.64479614858669
1578, 59.39567462893842
1579, 50.437787352013856
1580, 65.49311115631099
1581, 93.94395479655554
1582, 109.91564021703084
1583, 121.2360457179393
1584, 127.37869003982223
1585, 119.04232984980081
1586, 94.18452579357086
1587, 60.557382485475046
1588, 32.55381900048155
1589, 20.896819924727424
1590, 23.372113040592694
1591, 31.68556445049353
1592, 11.342159189988934
1593, -9.267462786701117
1594, -8.887593475471249
1595, -12.200077538318283
1596, -9.468360894249145
1597, 0.17333061463364174
1598, -6.344800035073831
1599, -4.5270594250878275
1600, 5.733977897723889
1601, -3.149976620348525
1602, -12.467566453133486
1603, -10.732779395304988
1604, 8.955993854964163
1605, 24.31120557206623
1606, 28.040695070529864
1607, 20.676900514706176
1608, 9.924275383525583
1609, 17.530060115850574
1610, 43.81966475717627
1611, 38.35831695320235
1612, 17.284427629538413
1613, -3.411544325365412
1614, -10.9015476355778
1615, -4.20310939114097
1616, 2.7310415599613407
1617, -10.205927429568192
1618, -3.63559284186681
1619, 12.461969253150983
1620, 18.259869150222585
1621, 23.327469590213695
1622, 13.677538469667752
1623, -7.162230968212498
1624, 4.456097449197841
1625, 12.286952323848709
1626, 9.315906742739799
1627, 18.758128945844646
1628, 22.50361833249599
1629, 17.72246222351555
1630, 7.252192406320546
1631, -8.013428660932504
1632, -12.789532234421813
1633, 3.0877090488802423
1634, 31.80786114173884
1635, 35.044933579450344
1636, 13.786663835022182
1637, 6.931836203416196
1638, 2.9263058916408227
1639, 0.9849487239478094
1640, 2.9695092063882385
1641, -4.985551881176207
1642, -4.534098003802455
1643, 11.83247354328796
1644, 17.614164357524942
1645, 3.7602864425562075
1646, -13.224740003220859
1647, -1.7398593227148922
1648, 9.849620209922705
1649, 11.117035477755508
1650, -0.6343270809306887
##END=



