##NAMES=
##LOCALITY=
##RRUFFID=
##CHEMISTRY=
320, 11.024155046993656
321, 6.081903645613238
322, -2.2726075360196774
323, -4.110509810275289
324, -2.458733409146589
325, -2.142679539801975
326, -2.7231069377194217
327, -2.3291553219796697
328, -1.0642355124264213
329, -2.037741656851722
330, -5.982338418657491
331, -4.765181374933491
332, 6.415103375277795
333, 20.829505410568345
334, 27.903975731195715
335, 29.281393921557537
336, 29.581160708716197
337, 29.578889578327107
338, 32.42523071389496
339, 38.43062546958663
340, 43.18635391201224
341, 45.01153402410728
342, 44.177495159711725
343, 40.90749285658512
344, 37.349271378090634
345, 37.47953419580699
346, 39.49358712225239
347, 35.98593269688354
348, 26.557402658035244
349, 14.486104398718453
350, 2.230826293671271
351, -3.437419902741567
352, 1.0338227286929396
353, 12.38515047851979
354, 27.554873570465134
355, 42.933680986498075
356, 52.84662862832283
357, 56.414509538779384
358, 50.445659606377376
359, 35.092044028514465
360, 18.06797019235637
361, 3.5793848342209458
362, -7.465376833603841
363, -14.69222251013889
364, -14.83854535204864
365, -2.459510811166183
366, 17.846790999986297
367, 29.923897094264248
368, 33.67551382472902
369, 34.24209844312827
370, 32.327628689657104
371, 25.84105437532253
372, 14.148382273450807
373, 8.74797441445935
374, 16.04996719477913
375, 25.973471544272797
376, 24.981399544263695
377, 16.261386383175704
378, 9.494771103174571
379, 4.675203707874971
380, -1.5428853309995247
381, -9.857812595183532
382, -12.222402458469332
383, -5.89538934812299
384, 0.7143388422837234
385, 2.145252768859791
386, 0.7728934405677137
387, 0.13144582830773288
388, -1.2238923633458398
389, -7.304650460491757
390, -16.962811322790003
391, -20.25615735347037
392, -16.30795415366174
393, -10.77406844556026
394, -4.967093682993436
395, 2.651948747834467
396, 13.41630255059954
397, 17.078724086023612
398, 1.562149319828677
399, -21.614502809692567
400, -28.128152367013172
401, -19.857346103593954
402, -6.379237427718181
403, 11.782796370374854
404, 30.44932819810583
405, 46.521137014816304
406, 47.15558232188596
407, 26.279109474364304
408, 3.5103923087699513
409, -2.939781043367475
410, 2.110589542650814
411, 11.7246718789047
412, 26.63036654690677
413, 48.02495791361616
414, 76.63157692954701
415, 98.6913272515203
416, 113.14695516981283
417, 128.30281728565387
418, 146.89516871064916
419, 162.64847874026964
420, 171.66090365349737
421, 176.41555270907156
422, 179.89761790743614
423, 181.32190640007593
424, 178.93046560966286
425, 173.9964459763578
426, 171.91699737874023
427, 171.2900530620973
428, 156.46410613620992
429, 124.65842043845169
430, 87.71064311039117
431, 50.30758712820807
432, 24.21702329184336
433, 11.561372362036309
434, 8.096098284539039
435, 9.517636697865782
436, 12.462502800640323
437, 8.946561452848982
438, 0.8953215454257588
439, -1.400992763123213
440, 2.6907662648854966
441, 10.518629579941262
442, 20.440091140071672
443, 18.591973166820935
444, -0.23172496704046353
445, -16.259848965275523
446, -17.672896745296384
447, -11.548893369840698
448, -5.923861433595448
449, -0.06667487895174418
450, 7.030555970675778
451, 14.013621252292978
452, 12.358532972172725
453, 6.143653570744391
454, 19.330719734934064
455, 55.66661029067109
456, 80.61634789553227
457, 83.54773054248926
458, 72.85192229963377
459, 53.237519313011035
460, 31.62652736849759
461, 14.83032185536922
462, 4.3671443918419754
463, -0.7506120450316303
464, -2.840873050326991
465, -7.330626743805624
466, -13.622264544204882
467, -15.578947677355245
468, -12.513317942631147
469, -4.372712988404601
470, 8.788795237456725
471, 10.318530643331542
472, -6.414168027906271
473, -19.184549318446443
474, -14.103028661653298
475, -3.490944593180757
476, -1.0081880045590879
477, -0.06073288012157718
478, 11.652697495213033
479, 25.975223338055912
480, 16.527402560705923
481, -10.91017345763612
482, -17.682644809026897
483, -2.1141365987596146
484, 6.3337174946354935
485, 1.9540458523906636
486, 6.0617819278804745
487, 27.40969434249837
488, 41.81292299631241
489, 34.28104223920491
490, 21.73505189640764
491, 22.106707595353328
492, 28.163213122747948
493, 27.347637447362104
494, 21.225647962277435
495, 14.700740770582343
496, 8.237196159820087
497, 3.4608630716284097
498, 0.054485638070218556
499, -1.8340383422209925
500, -2.8833484246843
501, -11.324950351784537
502, -29.91981225093423
503, -36.588282050709495
504, -20.1915239083919
505, 3.862580350830285
506, 24.721166606444967
507, 40.098375019911146
508, 47.594691358351156
509, 46.6497347314471
510, 36.1766442604503
511, 27.784307203485696
512, 44.71128602483441
513, 83.47785041811767
514, 108.07391660857411
515, 116.35312481971596
516, 122.04952981696624
517, 128.01188049076518
518, 134.49741920393262
519, 141.6132710999982
520, 150.16316716295387
521, 160.46487407114273
522, 162.70766363410894
523, 149.84632004189098
524, 132.0689165989843
525, 120.80539520352522
526, 110.0611191551252
527, 89.58803648898629
528, 64.20159758008049
529, 46.48799637065258
530, 39.574367613251525
531, 34.81040559152643
532, 28.346931171341566
533, 27.876819892640924
534, 30.025047023817024
535, 23.02476368241514
536, 4.9983827862888575
537, -8.340502581591863
538, -12.959929124596783
539, -8.142496942482467
540, 7.119618247425024
541, 20.896376127068834
542, 22.535618697123027
543, 16.092919225076002
544, 6.063549421143762
545, -0.6399825138796587
546, 5.555897207204907
547, 19.38561392892916
548, 26.31364736305568
549, 26.838544012830425
550, 24.4594387487914
551, 20.78051976368988
552, 24.160041413504587
553, 32.813414619871764
554, 43.1443436961963
555, 53.24721479215896
556, 49.72052162681484
557, 29.645418201751454
558, 8.57923672292236
559, -6.403294775962422
560, -8.362168452515107
561, 6.944161133152193
562, 20.63901870886548
563, 16.67738385321536
564, 4.61886024598607
565, -4.764976438547819
566, -11.017971872149246
567, -12.65247146416823
568, -6.437256075645564
569, 15.28664069268416
570, 42.138116629766046
571, 42.239466980217
572, 20.62002908079012
573, 4.206800591103274
574, -4.068299064923849
575, -5.920386624369712
576, -2.525554975562045
577, -0.0891897519959457
578, 0.19731569539089833
579, -2.4930676107551335
580, -8.220536492625797
581, -9.112969964524382
582, -2.307433464819951
583, 4.146907796947744
584, 6.110165283429524
585, 4.370112642007371
586, -0.5454182343510183
587, -4.88834720061368
588, -5.680704494150632
589, -2.7471541182067085
590, 4.51723863837924
591, 9.441081232522265
592, 0.764306095818938
593, -11.84660139481366
594, -9.055371377932715
595, 5.518814066786035
596, 20.849333451890743
597, 33.86287083021307
598, 38.15692651757945
599, 33.834285653774714
600, 23.95541126464923
601, 10.457047261639673
602, 3.846754931203577
603, 4.026902419628641
604, 2.491981386280713
605, -2.3524517158639355
606, -5.808418430794518
607, -6.514469661337898
608, -0.578974264786666
609, 13.524423310720522
610, 21.944904516210045
611, 18.492166727129188
612, 9.859571284788217
613, -0.10109051615927456
614, -5.644880491679942
615, -3.2022098445577285
616, 4.3715052557927265
617, 15.012694557774921
618, 19.435434249167884
619, 7.349002027780443
620, -7.7123834444837485
621, -6.761708790956618
622, 2.6565169025197974
623, 7.412464268504664
624, 6.54306131575413
625, -0.8591009422243587
626, -11.145348278547317
627, -15.226023526178324
628, -11.95279816123093
629, 2.2696496210755868
630, 26.19311053972342
631, 47.97498260131579
632, 63.4447887567876
633, 58.21016906753812
634, 34.74262825705955
635, 19.060038880152206
636, 16.05551490765356
637, 15.764092843472099
638, 14.330156786384578
639, 9.0064150491271
640, 1.101518731096803
641, 2.6381158760586914
642, 16.60730186624096
643, 28.86512169082107
644, 34.662375393800176
645, 34.40797365398612
646, 28.211867299266487
647, 14.381191112252964
648, -7.4222143243159735
649, -15.880572613364166
650, -0.01519126981474983
651, 15.1534709407033
652, 12.62861621740285
653, 3.3541191044996594
654, -4.162538817021414
655, -8.160999131077006
656, -6.854005644117024
657, -0.4871353894859567
658, 11.193595465394537
659, 19.58609304194124
660, 14.44111199227882
661, 5.6635120299470145
662, 7.341352709094281
663, 16.301015879804254
664, 26.495805541425398
665, 34.389300287437436
666, 33.8713746109097
667, 26.789665983501436
668, 17.02486430513909
669, 6.7122398424771745
670, 1.0185093744930782
671, 0.8756499795072159
672, 9.57145762026903
673, 21.25467509054033
674, 16.145840934731496
675, 1.8091681909945692
676, 4.59489199815107
677, 20.06719846472697
678, 26.031357463831228
679, 23.966983529854588
680, 25.723851582448333
681, 27.56206809190644
682, 9.9908201876151
683, -19.13627293278205
684, -23.479131907422016
685, -5.799678358588608
686, 2.1699084237361603
687, -0.6337215341836782
688, -1.1959635872053695
689, 2.3856697595147125
690, 10.679816827096147
691, 23.839167633502257
692, 36.420891645975644
693, 46.23362237869787
694, 43.67180124746028
695, 28.750857162000102
696, 14.280434998603596
697, 4.804362188682717
698, 3.9127462207989083
699, 10.657876174794183
700, 9.704043254258977
701, 0.9809202444030234
702, 3.7006278845674387
703, 20.72940696346177
704, 31.9606965723151
705, 32.884774484504305
706, 26.814999522541257
707, 15.580863855720054
708, 10.988936327718875
709, 15.3592191160933
710, 29.703447030790812
711, 50.560157642794366
712, 54.08853288896444
713, 34.747156661546796
714, 6.940665449365952
715, -22.329954349097534
716, -29.961409029956485
717, -11.311108051505471
718, 6.362958486714888
719, 15.975296021454596
720, 16.015475352060093
721, 6.762009310596113
722, -4.001534308808914
723, -14.153481120502875
724, -11.471776969337043
725, 6.883613130165941
726, 22.690266603429336
727, 29.605901547060057
728, 34.93710964471666
729, 40.625797072980276
730, 42.63496501232203
731, 40.045622569049556
732, 36.878258038709646
733, 33.958415166211125
734, 26.447109763078515
735, 13.867031380279514
736, 9.16926605050503
737, 13.97779458709374
738, 12.522930728805477
739, 1.6732307633646997
740, -6.152247928544966
741, -9.028398063436725
742, -14.532772916159956
743, -23.38070556783987
744, -18.428305318063394
745, 3.0181187005255197
746, 19.622679664813404
747, 26.15869696574191
748, 30.752668438028195
749, 34.14651570283968
750, 26.379195137100396
751, 7.393985466932463
752, -4.87127067948677
753, -8.534394380956655
754, -8.057754260288675
755, -4.091418789714226
756, 4.608705412487325
757, 18.554839082614308
758, 34.021439481647576
759, 47.782624309948915
760, 44.3803637220326
761, 25.69843105827931
762, 15.258257207188763
763, 16.077156826419014
764, 18.366289608122315
765, 20.247128405750118
766, 26.535814260573716
767, 33.42476730195358
768, 22.70518480626106
769, 0.4563859504278298
770, -2.767869196944048
771, 10.066711331308397
772, 21.00453019424731
773, 25.486750656310505
774, 17.470818849375974
775, 1.0482555491798848
776, -10.855554268745436
777, -15.391762499692959
778, -4.678330077817918
779, 16.12841066875626
780, 32.22259630442022
781, 40.37526443796742
782, 35.18689201995949
783, 22.37588983999558
784, 12.728877305791684
785, 7.8816690832745735
786, 7.56226693553981
787, 11.43960880146551
788, 19.468860736315946
789, 24.323399840537604
790, 18.279018024238212
791, 11.945875218430047
792, 18.011481037626254
793, 28.89405483754399
794, 35.227842555910684
795, 42.40249334601867
796, 54.54492915061928
797, 54.55431997845517
798, 31.149233101444224
799, 6.925612535286746
800, -4.247876982961316
801, -6.210538020131935
802, -0.6450283153708369
803, 10.142551527137584
804, 25.18385759489047
805, 28.98488286331667
806, 17.413710374537004
807, 6.75812304142346
808, 3.243422842552718
809, 11.063837839942607
810, 30.111031380358327
811, 42.09834699614112
812, 43.91575649636343
813, 40.11262769808309
814, 31.722395930495622
815, 19.83271824226449
816, 6.092494053972587
817, -2.365195940617923
818, -6.149873607719201
819, -7.54822162745586
820, -5.482058897398929
821, 4.394816121913209
822, 19.845507422646733
823, 31.83889201068814
824, 38.011251583454396
825, 34.39118269760547
826, 24.992623354331954
827, 16.603833412334097
828, 7.0833652576875465
829, -5.833873573563324
830, -15.212317046092721
831, -13.334125418008625
832, -7.997840353342326
833, -5.1854331807680865
834, 2.868731887154354
835, 21.469896069197603
836, 33.76381007165219
837, 31.47746619348345
838, 23.690867203763446
839, 14.36087565019534
840, 5.8729603483052415
841, 0.03712944914786931
842, 0.6637578342324559
843, 6.950686675002544
844, 4.506023612957506
845, -5.49952163837861
846, 0.8911415675211174
847, 23.102468853792743
848, 39.424917927972274
849, 47.984629827965364
850, 50.67167244063694
851, 46.024036286600676
852, 29.92388419242434
853, 14.140557437290227
854, 23.814895329470346
855, 38.30918258680322
856, 27.412497643515053
857, 2.922777457511984
858, -20.963933866136358
859, -30.333371726865153
860, -12.572946409916767
861, 18.354469284428887
862, 54.733748250758254
863, 67.41384024255512
864, 45.195200548522735
865, 20.185358630250448
866, 7.1358722304794355
867, 16.664131153745075
868, 47.30798268441595
869, 56.20673404513309
870, 38.50992189349563
871, 11.71731637870289
872, -14.92181364895714
873, -23.059374147299422
874, -14.437072575722596
875, 3.651127517945497
876, 19.338270246906177
877, 5.134736166773109
878, -13.856890370917426
879, -1.3218686531927233
880, 22.394466375535558
881, 33.82218456123155
882, 33.71842350998668
883, 22.82467316785278
884, 8.678649373518965
885, -3.11057933916436
886, -0.49118273632848286
887, 19.675178928841888
888, 30.859107883683464
889, 26.256147620020784
890, 11.08382740250272
891, -6.833255584157087
892, -1.4246561403524538
893, 22.038622465238404
894, 30.867483493518193
895, 24.940611902573437
896, 10.674037739231608
897, -3.927675173462376
898, -8.860362732397334
899, -2.274576308603173
900, 18.97899872974085
901, 32.29084628880719
902, 19.83978736095378
903, 3.7788965832978647
904, -3.1569560622056088
905, 1.098022152879821
906, 16.657743679968007
907, 29.07493384666759
908, 33.70630211909611
909, 25.207787308672778
910, 9.320751882057266
911, 15.272245845581892
912, 36.959013217549
913, 44.50310503347009
914, 39.819113927075705
915, 30.149260879364192
916, 13.720022620301279
917, -10.66491200976543
918, -23.497993120421597
919, -7.7463187533503515
920, 14.097208411782958
921, 30.665098073779518
922, 41.832061733342925
923, 47.765131078434024
924, 45.30423225330378
925, 34.13772438948217
926, 17.138764924719908
927, 1.7101447516979533
928, 5.904133878439097
929, 25.003953790068408
930, 41.05056176037215
931, 50.352578063859255
932, 48.20615227500821
933, 32.84335183051644
934, 2.80853433125867
935, -12.751581351119057
936, 2.3429667716854965
937, 23.20712976997129
938, 37.59552265784441
939, 36.713667066886956
940, 20.7167726537582
941, 5.554445626955385
942, -3.238824523364201
943, 2.001485365863118
944, 13.216179637696769
945, 7.186042837758578
946, -5.154844810388113
947, -7.4709688426255525
948, 2.724751994959661
949, 28.470801022192063
950, 47.2688368269869
951, 46.773865780706274
952, 38.943626353634045
953, 28.124004735876497
954, 13.585293880437803
955, -0.27865074058126993
956, 0.952219854629675
957, 10.683685192900612
958, 2.062172421219657
959, -8.644869891627422
960, 11.216009322835362
961, 37.64739917217412
962, 39.03054999854794
963, 26.82589510089656
964, 9.215638109602878
965, -2.360467031274311
966, -4.08878986909167
967, 10.069561593583785
968, 36.750475749269754
969, 41.80241247993308
970, 24.75696306714508
971, -1.020186164052575
972, -23.06644348420423
973, -21.732849513597557
974, -6.62191476756243
975, 12.258338068917055
976, 20.928779344867053
977, 10.945679457042388
978, -2.1062834377507897
979, -11.438937014238945
980, -8.941073527698336
981, 4.324392123252437
982, 14.653561531190007
983, 19.018018578864485
984, 15.385674245987502
985, 7.373597069640255
986, 1.516015125624108
987, 6.439062475164519
988, 29.776596351578064
989, 43.96194790388927
990, 37.30522404663634
991, 29.32690778886399
992, 24.184729745534696
993, 13.27268387762706
994, 2.4352142722086683
995, 9.579190592446594
996, 25.595888294032648
997, 28.570772744417354
998, 26.440324931380474
999, 27.64073174412897
1000, 19.39561752816053
1001, -3.318599829186496
1002, -9.791110117818334
1003, 6.595360062527561
1004, 29.829151738485052
1005, 50.37847443885539
1006, 48.52457648435666
1007, 29.10861337643746
1008, 4.713116802298373
1009, -11.767362520696224
1010, -9.386016496900083
1011, 4.42854038266114
1012, 25.14272759710593
1013, 30.78684863481749
1014, 18.17809120097172
1015, 8.840233195570363
1016, 7.592811083722154
1017, 15.388775012650513
1018, 27.83562939743024
1019, 38.40039574298271
1020, 35.651477123692985
1021, 10.1147908160101
1022, -6.782835546689512
1023, -3.834613131995411
1024, -0.9719465023931662
1025, -1.182180711336514
1026, 5.699521773799006
1027, 16.280714653958057
1028, 15.95649860404319
1029, 13.358518495027965
1030, 21.260999022059877
1031, 22.051125492153915
1032, 4.900899612653575
1033, -3.3694797605444364
1034, 3.8696558392502993
1035, 11.444205117886213
1036, 14.550161334549102
1037, 8.475319579359166
1038, -1.1386497417634018
1039, -3.3656495361897214
1040, 0.8434356980133089
1041, 10.575094735660969
1042, 12.172306906015365
1043, 0.6964896992853937
1044, -10.937603282339296
1045, -16.319161273906047
1046, 2.918977498388813
1047, 36.16934136702048
1048, 51.15200366060344
1049, 50.3074348580958
1050, 37.63319578039227
1051, 17.210041442715465
1052, -6.582004609633714
1053, -10.400839699160315
1054, 4.426753220791397
1055, 3.753435981778239
1056, -10.126911462038606
1057, -22.162228091704947
1058, -29.63497493207251
1059, -29.595471179497054
1060, -27.247679630612765
1061, -24.916043935963444
1062, -18.20602675667078
1063, -7.2913571346362005
1064, -0.7107878707829514
1065, 2.836473642530109
1066, 8.13472531854677
1067, 13.722356898287217
1068, 18.207792164997045
1069, 44.93618219352129
1070, 105.9436570323951
1071, 177.73102614280833
1072, 238.55764010354687
1073, 273.9057254868467
1074, 296.6730567297991
1075, 337.594456976788
1076, 387.8081500332228
1077, 436.9262576105534
1078, 465.6619452061491
1079, 464.63034673361335
1080, 430.06690552481086
1081, 370.766171053936
1082, 321.30794967038673
1083, 278.00478913806955
1084, 229.13552657357013
1085, 171.79097457834723
1086, 104.64746612120143
1087, 51.702533239784316
1088, 13.975788670797101
1089, -4.136570827041851
1090, -9.616178516161654
1091, -20.77274929555233
1092, -29.617790404702646
1093, -24.342961967165593
1094, -11.97240173807404
1095, 4.311674735468841
1096, 24.39184806906087
1097, 39.38901598689699
1098, 16.719661301903216
1099, -20.408759290127364
1100, -23.719200748833828
1101, -15.475169039499633
1102, -13.464380683689797
1103, -10.491469407374552
1104, -4.736802571039789
1105, -2.08052990992428
1106, 0.017392346737779008
1107, 10.439887197705048
1108, 18.13704356354401
1109, 10.026615018141001
1110, -3.0259054204775566
1111, -13.574522239018734
1112, -3.422107916405821
1113, 19.918058593344995
1114, 13.311358124755316
1115, -7.905661856347706
1116, -15.822337460652307
1117, -9.332423984703837
1118, 12.399165474160327
1119, 42.133846133067436
1120, 69.82485444165559
1121, 69.76978253491143
1122, 47.77244842398932
1123, 19.785387870201248
1124, 3.27218864328006
1125, 6.87396313568388
1126, 13.618378352339732
1127, 19.97366169147881
1128, 31.988515787269534
1129, 41.791610921440224
1130, 30.88549438265636
1131, 12.398411444912654
1132, -0.5908643259704149
1133, -8.001982247243632
1134, -8.690596139695117
1135, 4.674357154450718
1136, 22.178205760071705
1137, 15.725246053234514
1138, 2.4819246031438524
1139, -0.4974478257468036
1140, 10.721726177185701
1141, 35.01781249930582
1142, 50.16433570628851
1143, 49.916493937998894
1144, 27.453454859267822
1145, 1.3265852204804105
1146, -10.892182747578318
1147, -3.1551984468865157
1148, 21.09623875625539
1149, 25.62739323579899
1150, 13.33670867728415
1151, 1.9281030986294354
1152, -4.164821281609875
1153, -2.755927393799084
1154, 2.0210127712980466
1155, 7.048405841533622
1156, 2.7008141262354
1157, -0.9251592192872522
1158, 18.516461929883008
1159, 39.021022543389336
1160, 44.07404072399913
1161, 35.991542329003096
1162, 17.7582620503581
1163, -1.3651468801135707
1164, -8.646027348701864
1165, 13.93224938669573
1166, 27.01806055304405
1167, 10.042017904711884
1168, 1.733834252910583
1169, 7.075229739367387
1170, 15.693398648832499
1171, 24.52149112989082
1172, 31.045838649121833
1173, 17.438279392848017
1174, -16.757249124976624
1175, -19.82811871535614
1176, 4.2712147907082
1177, 24.689019947474208
1178, 38.50638194471048
1179, 44.371630438176
1180, 34.39985880012409
1181, 12.416463043895419
1182, 10.267618744762785
1183, 17.421541086478555
1184, 7.886833057868898
1185, -1.860501014383317
1186, -2.790335994666748
1187, 1.9465201777557013
1188, 10.351412769482067
1189, 16.826743149228605
1190, 14.906959347324118
1191, -1.7951385908900193
1192, -14.726081903046634
1193, -17.634980613001062
1194, -13.174540281561349
1195, -5.470090250953035
1196, -2.2892742459484907
1197, 0.4281043651380969
1198, 6.264722526867899
1199, 20.575658708346054
1200, 36.31901146466498
1201, 27.961316736352728
1202, 9.013553953740484
1203, -0.5166390039257749
1204, 1.1435585828567127
1205, 14.681927787612949
1206, 38.07313220809692
1207, 55.07333379087049
1208, 38.28888201295376
1209, 21.479768595677342
1210, 24.341144725450704
1211, 17.575199344956218
1212, 2.1892228753458767
1213, 2.1099954951178006
1214, 5.9396381467995525
1215, 2.3379450768575225
1216, 19.13978216736041
1217, 53.14467249342397
1218, 47.37275651197433
1219, 19.604512119938136
1220, 7.309728785684001
1221, 1.5906667482245211
1222, -2.1134724846419886
1223, 3.4534756513662614
1224, 12.351908895789165
1225, 7.270690961790933
1226, 4.94159685477598
1227, 15.899006517950511
1228, 16.308574117780154
1229, 3.917599528608207
1230, -10.244702509960916
1231, -20.146272090393722
1232, -20.19555729423064
1233, -12.432868396754202
1234, -0.47714261698138216
1235, 2.453379798880178
1236, -1.9253317789170978
1237, -9.778882201687338
1238, -10.525240026882784
1239, -1.4142840517529294
1240, 8.16147088917296
1241, 16.91494130514957
1242, 22.657294522723987
1243, 26.341006004560313
1244, 29.685779456790442
1245, 40.300295477813506
1246, 53.231700527724115
1247, 55.53461027485855
1248, 43.73565590408907
1249, 19.052871637025873
1250, 8.605271840713158
1251, 13.606090478523583
1252, 26.974517079713223
1253, 38.35200960891325
1254, 41.47062209932983
1255, 38.90857379395811
1256, 31.48522278253995
1257, 19.7107392700309
1258, 18.032848166773874
1259, 35.45902737723691
1260, 53.36221861554304
1261, 64.62690999404867
1262, 61.86024769649612
1263, 45.92779183606308
1264, 20.248769350478597
1265, 13.315660475981986
1266, 26.333982547373125
1267, 41.17464536234138
1268, 49.032711737680984
1269, 45.976781017335725
1270, 42.63812187769372
1271, 42.87774847473838
1272, 48.479258794338875
1273, 46.87139054207955
1274, 26.230361744379934
1275, 3.9730217123424154
1276, -11.595035041671963
1277, -14.038825348565297
1278, -8.256620923365062
1279, 0.5671318465674631
1280, 8.279354237175085
1281, 15.43667793550867
1282, 27.05812755629995
1283, 42.552606954112434
1284, 60.53887407187449
1285, 57.23009921104631
1286, 32.755714188528145
1287, 8.368614076043286
1288, -7.957261965336784
1289, -13.049573969674384
1290, -9.892345595116694
1291, -1.047178767639707
1292, 8.345852797408952
1293, 23.277795535914265
1294, 43.89575062505264
1295, 48.403731908596
1296, 34.90504051915377
1297, 11.269842230722588
1298, -4.1340711081361405
1299, -1.8582885801447446
1300, 15.302051410206332
1301, 30.425303597469792
1302, 10.751803483882668
1303, -4.519531724025001
1304, 1.9442048582350253
1305, 2.445115450058438
1306, -2.544973309748457
1307, -5.35547129471388
1308, -10.547405468400484
1309, -14.642199179448653
1310, 9.376289921893203
1311, 39.87895880292763
1312, 40.595387354340346
1313, 23.080664747494666
1314, -3.1658858012210658
1315, -20.021279864224198
1316, -20.01413404396817
1317, 1.9294213332345862
1318, 22.22592977587692
1319, 34.67990553279833
1320, 42.12511655864273
1321, 39.71018753358794
1322, 26.308845179995842
1323, 19.513865251577045
1324, 13.761665358541904
1325, -6.2939161618064645
1326, -14.022916359207102
1327, 1.364096046152099
1328, 25.53613110314882
1329, 48.17172482734077
1330, 58.152196681129226
1331, 51.55406059598499
1332, 32.70385874946487
1333, 20.548295484527443
1334, 13.372056754681125
1335, 9.028931380668382
1336, 1.3150245272931897
1337, -6.2560583395461435
1338, -2.03898031410381
1339, 3.1778407382521436
1340, 3.283882237684793
1341, -1.4839246511146484
1342, -5.086539669265221
1343, 0.953392150853233
1344, 9.032595957713056
1345, 13.994343197425223
1346, 9.14227785550247
1347, 2.7483092329352985
1348, 1.9629230233131238
1349, 1.1606100874241747
1350, -0.2583688168433582
1351, -0.7328971704037031
1352, 7.584394022381275
1353, 26.168172535823487
1354, 38.81381413677991
1355, 34.906520337564416
1356, 6.635496016347588
1357, -13.15469189192845
1358, -16.719407483217765
1359, -4.436134441239119
1360, 11.116410494590127
1361, 22.236291366675687
1362, 26.21499323326725
1363, 24.95509791176437
1364, 22.01210320957216
1365, 23.264595030133023
1366, 24.394483291184315
1367, 5.378259819551204
1368, -8.569752673307448
1369, -2.3070848080815267
1370, 1.3653241502611309
1371, 3.8085351044514937
1372, 13.473745965472062
1373, 10.331692277654838
1374, -3.721253686221644
1375, 4.153007669261115
1376, 20.53708862728172
1377, 29.92964522545526
1378, 23.056011210357156
1379, 10.584230511538408
1380, 14.355098876041211
1381, 17.275881651828968
1382, 14.65054256597432
1383, 12.899948785347988
1384, 5.138396918161561
1385, -8.963422676428308
1386, 3.9570525093417928
1387, 28.10917972198513
1388, 25.987031336085693
1389, 18.79684752577532
1390, 13.348698160321874
1391, 5.8075562270250884
1392, 4.785473308928431
1393, 11.743748996279464
1394, 1.1096714482741845
1395, -10.519613370139268
1396, 2.317418285538224
1397, 16.80731771331193
1398, 20.207674656451218
1399, 0.7709555435826587
1400, -11.05217892629662
1401, -0.5444202171611323
1402, 25.559737490753378
1403, 48.70876819265777
1404, 50.123388789877026
1405, 29.2168778194914
1406, 4.657158421459371
1407, 11.941286975413277
1408, 24.67446828999664
1409, 28.762386042501475
1410, 20.90047526386161
1411, 12.149878134252958
1412, 11.404557833472609
1413, 14.686114259792703
1414, 20.5674721665564
1415, 28.286631273363582
1416, 23.232090318887913
1417, 7.718696953321341
1418, -2.9301395950960796
1419, -12.786682090618797
1420, -20.433857522221842
1421, -11.461414563471408
1422, 4.55076344113013
1423, 18.55668715179445
1424, 22.95767042331454
1425, 16.32070992124818
1426, 0.3246048991445605
1427, -2.0572609417226886
1428, 7.782990327006701
1429, 12.761394249042496
1430, 8.14365387506632
1431, -3.285292998809382
1432, -5.74970723120714
1433, 2.332709318088746
1434, 16.832665041084965
1435, 8.534195070826627
1436, -6.436039094266562
1437, -5.990294130585426
1438, -1.4212086386605733
1439, 6.083461242361409
1440, 18.128881392057338
1441, 12.870392262897894
1442, -1.0222567795644864
1443, 20.029148002895454
1444, 36.97505517790796
1445, 29.47504709066152
1446, 7.431211585989331
1447, -12.338083579159502
1448, -17.60509325797375
1449, 2.802915678107638
1450, 28.810403528276765
1451, 30.798899794305726
1452, 11.996468754513899
1453, -5.055190697629314
1454, 13.248097254211189
1455, 48.93380127967794
1456, 80.11056119766681
1457, 74.2195167056725
1458, 52.52615657945398
1459, 29.438553482402767
1460, 15.85180648758842
1461, 6.961107299209743
1462, -2.783864135224576
1463, -12.86499833161497
1464, -17.51060537625608
1465, -11.211512094622321
1466, 4.957461095526014
1467, 21.618164256316504
1468, 25.595331402580996
1469, 29.559698767989175
1470, 28.434424496367228
1471, 9.630263516516607
1472, 1.887388436854053
1473, 8.54435633348885
1474, 18.58223982697382
1475, 36.745414969924695
1476, 54.28714238663542
1477, 46.56170983369748
1478, 37.36487580259109
1479, 36.2305254118146
1480, 27.35936238903605
1481, 23.6350748173154
1482, 28.149159672569567
1483, 9.433651265127082
1484, -4.356244536099894
1485, 6.0653009348502565
1486, 4.73644784474709
1487, -0.9090781857948969
1488, 1.8792986517414647
1489, 2.7973053836317376
1490, 10.572209243201087
1491, 36.39975755487558
1492, 42.619833739322985
1493, 28.807930693721573
1494, 9.46907496037511
1495, -3.6700896678948993
1496, -8.641023033263082
1497, -6.046306304469454
1498, -3.257631924031557
1499, 4.479356019081024
1500, 31.3990778910711
1501, 43.225880401797895
1502, 37.94121047969384
1503, 42.43854201401973
1504, 40.22611545305426
1505, 29.039739763380112
1506, 23.391008893916023
1507, 5.225515554470803
1508, -21.089180765166475
1509, -18.933120795526065
1510, -6.356254997766882
1511, 2.984286788429472
1512, -1.8886690770195855
1513, 0.8054843623963279
1514, 20.905538089875336
1515, 43.97190351085828
1516, 43.97829700681996
1517, 13.691193520022352
1518, -14.18022737946103
1519, -15.952809020187942
1520, 13.052284077905824
1521, 33.61774890310653
1522, 39.150287573004334
1523, 32.589625624018936
1524, 28.650711946079355
1525, 31.5089174929617
1526, 39.07701112826453
1527, 34.94128172824685
1528, 23.619476629778546
1529, 10.03181250662601
1530, -3.0737078850652324
1531, -10.90440678539153
1532, -11.831955745800315
1533, -13.363657663914182
1534, -7.900307514294582
1535, 7.076750257350795
1536, 16.57077590933386
1537, 20.300985739647786
1538, 19.78795008140378
1539, 15.268894988021202
1540, 19.086091760856107
1541, 31.61407243158692
1542, 24.538694450858657
1543, 9.015517105376148
1544, -1.5508732848088584
1545, 5.628447993551617
1546, 10.994946195837201
1547, 4.428970112175648
1548, -4.830406012551975
1549, -6.801753983862
1550, 3.68573799830574
1551, 26.66584067412714
1552, 27.16919091040836
1553, 8.322196772879579
1554, 20.914336432593245
1555, 22.541326610742544
1556, 6.5269407365849474
1557, 0.8642396035897946
1558, -15.189249534413193
1559, -29.644807205651887
1560, -3.9316089554276914
1561, -0.8634836100777648
1562, -22.18751074694137
1563, -34.03926767823759
1564, -26.227998358163404
1565, -6.750089707944426
1566, 7.441246040014448
1567, 8.47611430522511
1568, 1.6765394982935504
1569, -3.2836830335259037
1570, 0.532375472966578
1571, 4.882736235542325
1572, 4.137889965350496
1573, 21.471876929482733
1574, 66.91944306305959
1575, 139.3876239717656
1576, 190.64961749477789
1577, 224.3406351358135
1578, 248.02736091200632
1579, 269.0001463661056
1580, 295.838081557421
1581, 324.43582410317276
1582, 332.94010464269013
1583, 332.8066418381677
1584, 324.8399912775676
1585, 298.7524920352462
1586, 240.67046732487051
1587, 163.83995629847004
1588, 97.90970261604798
1589, 62.12865714304826
1590, 41.11015336242781
1591, 16.849411637992944
1592, -5.85590396842008
1593, -14.044456877613356
1594, -3.713923931248246
1595, -7.224322309614308
1596, -27.26926475879145
1597, -51.52326974486414
1598, -40.01018569088956
1599, -4.523683356513629
1600, 31.249958929235618
1601, 23.885093223934746
1602, 7.036976189091092
1603, -2.6804763667819316
1604, -0.6731550957570107
1605, 2.0753487981178296
1606, 1.6117184499848918
1607, 0.43869808898216434
1608, 22.927736161921985
1609, 44.41719866476842
1610, 41.7439254543483
1611, 10.414851651780282
1612, -8.129367079303847
1613, -5.4329431426990595
1614, -7.941475106578309
1615, -5.620337560403186
1616, -0.8626924477612192
1617, -1.4226577818990336
1618, 19.75126757069029
1619, 34.53064961264454
1620, 13.047479994927926
1621, -2.938435204460802
1622, -6.377989319012158
1623, 2.8115341661277853
1624, 23.07031914264735
1625, 34.24379365027653
1626, 32.244761619660494
1627, 26.508018332471238
1628, 15.790252745303405
1629, 5.438393706432635
1630, 3.097521879755277
1631, 5.856167308734712
1632, 12.985850801953347
1633, 20.086090658778176
1634, 15.50545921133562
1635, 12.245369560218478
1636, 8.933396761019594
1637, -9.003858515514821
1638, -11.753222710184673
1639, -6.798011077840783
1640, -10.421662422890677
1641, 0.23536005662754178
1642, 7.335531625527437
1643, 0.5493975402664546
1644, 0.0516818147975755
1645, 3.643138311735129
1646, 10.020742660657561
1647, 16.82802969494651
1648, 7.2187031138510065
1649, -4.544720621154283
1650, -1.0917574758964292
##END=



