##NAMES=
##LOCALITY=
##RRUFFID=
##CHEMISTRY=
320, -17.282432788659207
321, -9.881412148837626
322, -1.573631396086057
323, -0.22157420969961095
324, 0.8181848369340514
325, 13.074444984886213
326, 30.291830895053863
327, 27.855847156825803
328, 6.214818493450366
329, -6.029797544970279
330, -3.3148931096975502
331, 2.4127671456271855
332, 5.02198358066471
333, 11.95114145280877
334, 32.976519825750074
335, 58.55172650189343
336, 65.58263622742197
337, 55.48376061514955
338, 45.28570493096322
339, 37.783169111245115
340, 30.4097737436623
341, 22.186444516764823
342, 13.00904244456251
343, 4.093258912635974
344, -2.3540364897880863
345, -1.2413253235945376
346, 5.515109014418158
347, 10.160470680010803
348, 13.08469057781167
349, 21.87086449675826
350, 36.669608172194785
351, 44.54085280794334
352, 38.817225674689325
353, 28.070462849654177
354, 22.005508510488653
355, 18.123742415205925
356, 10.409597808352373
357, 1.3472088794696901
358, -1.350908093992075
359, 2.499173190106376
360, 3.65162716579016
361, -0.6268642293844096
362, -2.267416604803657
363, 3.904203950783085
364, 14.949449545771131
365, 25.609164313628753
366, 33.90305219842048
367, 34.38075447115534
368, 26.517345691976516
369, 9.128239738169214
370, -15.540374298540883
371, -26.110968649053575
372, -15.618496511940066
373, -1.9108046905303127
374, 3.3575956277791192
375, 5.735689209897828
376, 12.846139724430941
377, 19.906010508718282
378, 14.403902588139317
379, -1.0129972399354301
380, -5.564656935803214
381, 2.654693680694436
382, 6.443161894076184
383, -0.5429992197996398
384, -3.626931586740284
385, 6.857014216076095
386, 18.783103022711657
387, 14.508205694974095
388, 1.1146801367513035
389, -1.4051664485941728
390, 4.825278371118657
391, 3.3028196571976878
392, -7.347276206884089
393, -12.444330153838564
394, -7.883534291416254
395, -4.631402569443708
396, -9.175470842657887
397, -13.89529079498152
398, -9.493622028891878
399, -2.180263181875489
400, -6.835335340215352
401, -19.628586837694456
402, -19.701917803313336
403, -6.0956624712225675
404, 6.101565369413947
405, 14.016632539006423
406, 18.311037385082273
407, 19.58729413758647
408, 17.79985057751219
409, 14.68756839280195
410, 15.703298602642462
411, 31.23268199658378
412, 58.19089451144737
413, 77.45295381917549
414, 88.72314830322557
415, 98.2346169961611
416, 107.25646175847305
417, 118.18625927035919
418, 131.76483905370242
419, 142.50653156624048
420, 147.0005933558532
421, 147.6026954027675
422, 147.14482350909384
423, 147.34234902812477
424, 151.99270147964216
425, 158.68330721150778
426, 157.11796198809043
427, 146.25514065489824
428, 126.44864185657298
429, 98.1729421557402
430, 69.4289224602735
431, 43.36881719136636
432, 26.807093014730526
433, 19.82695878195591
434, 16.545673856217036
435, 9.745312403842945
436, 1.9219446680863257
437, -0.08453759375061054
438, 1.9984613916776652
439, 0.5677116062834102
440, -4.5629797181509275
441, -7.170694080105022
442, -6.234870872075589
443, -5.517140659078905
444, -6.399070916400888
445, -4.090461556886112
446, 4.949054177864127
447, 14.67718775611138
448, 15.93472239743187
449, 13.308938765398125
450, 16.876790377933503
451, 23.531836286681028
452, 20.256796918990403
453, 8.63358619527753
454, 8.890883715012933
455, 23.557993043965325
456, 34.74160944520463
457, 36.924965405452895
458, 35.94634123124979
459, 35.08166734152201
460, 30.06051322134681
461, 16.68070016548063
462, 2.0897478323677205
463, -1.169333112872664
464, 2.2929008989958675
465, -0.17491495522517653
466, -7.693883322379406
467, -11.452896104118736
468, -11.003174504812705
469, -10.522215217112716
470, -10.887214535073326
471, -10.206062518824183
472, -7.637501074756074
473, -3.04732472510932
474, 3.942455544431141
475, 10.964201765144935
476, 14.10450083392152
477, 12.343817745751949
478, 3.734067832901019
479, -7.9029170497442465
480, -12.83654759129422
481, -9.59680549609493
482, 8.266407289438575
483, 40.63930514774074
484, 60.72167664229164
485, 62.45421202594662
486, 52.21361686011369
487, 32.67287188715727
488, 15.607024400243063
489, 10.063715203426
490, 11.756764915297026
491, 16.900297842131295
492, 21.398928477067784
493, 20.188401626813175
494, 13.141433986394986
495, 0.15714982408007927
496, -15.88344077943475
497, -24.07479550752032
498, -24.38429204652857
499, -21.24074575456416
500, -15.486498490502527
501, -10.375577853557843
502, -6.405561522651624
503, 4.342799041077342
504, 26.60857146185026
505, 42.34139774805226
506, 37.842272458223306
507, 25.599539223687316
508, 21.3928598922912
509, 21.935090474401477
510, 16.500660125366267
511, 11.450215474174911
512, 27.860687024555773
513, 63.181675296839785
514, 88.40710228852004
515, 101.56945942269158
516, 112.70460227925741
517, 123.88096341550136
518, 135.10605573278735
519, 146.2222685581619
520, 152.2031168535368
521, 150.6796484146953
522, 145.14403189362838
523, 138.10404054838637
524, 124.38049602992214
525, 98.16290740039585
526, 67.06936411400056
527, 44.1111415490177
528, 31.46243161889106
529, 21.658850310780508
530, 13.020176794310828
531, 3.196857815140902
532, -7.585083831378142
533, -12.792187851352537
534, -12.056002432061177
535, -8.026386595576696
536, -1.1773418058282914
537, 5.488081627372594
538, 11.258270912872831
539, 12.443296576794637
540, 7.479102356302974
541, 1.5785200532254748
542, -1.250421162020757
543, 1.522924416751266
544, 13.2949544688081
545, 24.78416522047155
546, 21.14922325587304
547, 8.907359707562136
548, 4.542126849037231
549, 7.164232158351297
550, 13.472241641344226
551, 23.55047167066914
552, 34.7912702108606
553, 45.71660396152038
554, 47.104975108605686
555, 37.58788664305939
556, 21.731501006577673
557, 1.6533450596180046
558, -5.724769291365192
559, 4.8453318208121345
560, 12.05032686710365
561, 3.457910370892023
562, -4.2051879726750485
563, 0.614515153456523
564, 5.32431010534583
565, -4.238057945276523
566, -16.681289898660907
567, -15.293343655940589
568, -6.850421503869256
569, -5.320020486980866
570, -7.485489808460443
571, -3.5695046764112703
572, 4.416248184177675
573, 5.191977222594687
574, -0.8021244409274004
575, -5.11299893647265
576, -6.765325976494751
577, -4.811170862546533
578, 0.7462381638379156
579, 5.547012419149723
580, 8.198830912950143
581, 10.073995526449835
582, 11.598551990388842
583, 9.411437655682676
584, 1.9286834417143837
585, -0.31080755660423165
586, 9.357343134834991
587, 21.553394461453536
588, 26.055729563761815
589, 26.19207042326161
590, 26.02842826327651
591, 25.18549302334759
592, 23.032316102314326
593, 19.530726946914
594, 14.61845992309918
595, 7.9073073093923085
596, -0.8680795142554416
597, -10.245827585560619
598, -12.673768759710583
599, -6.808659800867645
600, 11.819596098738657
601, 41.209867682639015
602, 53.70743231706183
603, 46.23979690870328
604, 30.34017884961395
605, 9.375666136095788
606, -6.3750686453704475
607, -15.469499700303459
608, -12.668680465812031
609, 3.88630411766826
610, 17.902964860699285
611, 20.975133859391462
612, 20.26700074634755
613, 19.85716755527119
614, 19.275208000285602
615, 18.183704880948426
616, 16.365153468036624
617, 13.621605784704116
618, 7.3778422236282495
619, -4.623157047047243
620, -13.796253591176537
621, -6.78344692059909
622, 7.5566312155579
623, 12.450282514311766
624, 11.101543824509463
625, 11.362539227108755
626, 11.153272719889173
627, 4.127046135485216
628, -4.962032758784517
629, -1.7142940134253877
630, 11.759874569787826
631, 22.437691179288777
632, 28.62918643363264
633, 35.02174858309991
634, 40.21520275304465
635, 32.19638835085789
636, 11.65610191383439
637, -0.5102964089019224
638, -2.6394823364926197
639, -5.22654818011506
640, -9.907478157105288
641, -3.7163220848933634
642, 16.52571330306455
643, 30.108686403005777
644, 30.280631765602266
645, 27.52854163011216
646, 25.936063016069966
647, 20.94447052148007
648, 10.608528089663196
649, 5.856996983129648
650, 11.515912137492705
651, 16.012916185808535
652, 12.331624921306684
653, 5.222083207088872
654, -1.244179983318645
655, -4.662369147033132
656, -2.7174857982736285
657, 1.8431031592090221
658, 6.478006436083888
659, 9.816717460277687
660, 9.038708820247848
661, 10.228566796537962
662, 20.56997850791595
663, 32.18750005995571
664, 34.373002843801714
665, 32.61983534010915
666, 36.803907524405986
667, 41.155025647472485
668, 33.894324764187786
669, 19.11783652379063
670, 6.597921284340373
671, -2.155690939793203
672, -6.798171285438002
673, -8.777441964188256
674, -11.137918168072702
675, -12.218675895373053
676, -5.887572974112572
677, 5.733531281184696
678, 13.171258411119197
679, 16.87105930275493
680, 23.715306961219994
681, 30.099448469216895
682, 18.931802076864642
683, -4.113541151936715
684, -6.506643101112786
685, 9.831258122349936
686, 19.719033694752397
687, 20.61419966497988
688, 22.79445585293297
689, 27.301269695609335
690, 31.60794606153604
691, 35.50983065707487
692, 40.20358380218113
693, 44.367315050106754
694, 37.83660957043412
695, 20.367770722287787
696, 5.687305076986377
697, -3.6731923983224988
698, 4.392550881835632
699, 30.331179953560422
700, 48.118094828617814
701, 52.815102850911444
702, 51.014980160302
703, 43.86748003627463
704, 27.685851250667838
705, 3.7313118646939074
706, -6.155275063762474
707, 0.8224861031221735
708, 7.496983599388841
709, 10.730246479968628
710, 21.225393814735526
711, 39.18455998478066
712, 46.53148585459803
713, 39.195724238426465
714, 29.656748703373523
715, 21.05549172460769
716, 7.452937863641637
717, -10.70637775224668
718, -16.846843384028944
719, -7.498298277125286
720, -0.5067788108217428
721, -0.3104692473966679
722, 0.9240129085910667
723, 5.6902201341304135
724, 13.97183431359781
725, 24.41995611315224
726, 28.798105634088188
727, 24.972014363828748
728, 18.381034646000444
729, 10.69745869786675
730, 1.8405699202835422
731, -7.195867916021598
732, -6.748471043691097
733, 4.689690175869146
734, 6.792633691931769
735, -5.209843428901877
736, -6.701441396174687
737, 7.754293970094295
738, 19.28216546241947
739, 22.240153352249763
740, 26.941007215362333
741, 34.92166863430202
742, 32.18197965084801
743, 16.59232121888681
744, 4.5271226047862
745, -0.11716070226066222
746, -5.3509802408016185
747, -12.449959689544357
748, -12.078005236768604
749, -3.231357281902092
750, 3.0720862038574523
751, 4.577239621350145
752, 2.119787207023819
753, -2.8707331398859424
754, -3.2873111657877416
755, 1.2392029582715622
756, 3.5689709409252828
757, 3.0666593958176236
758, 5.808038048842263
759, 10.239962695720806
760, 3.231527197788182
761, -12.023782946645497
762, -10.257850416556266
763, 6.8636014075614185
764, 12.334944484095558
765, 7.014317694740839
766, 16.1745195470171
767, 37.68110226431736
768, 44.851840781792816
769, 40.06087894472739
770, 42.63542095281173
771, 50.55559097908326
772, 50.44251681341075
773, 44.57714506481898
774, 43.613750806564894
775, 43.13250473582775
776, 28.44015405544087
777, 5.9072395641360345
778, -5.313639447576406
779, -6.934854088533484
780, -2.596954593397186
781, 7.210593593556496
782, 21.850765084473096
783, 33.938542722349666
784, 31.342112557781093
785, 24.381716840522586
786, 30.258352724222277
787, 36.78289535208887
788, 26.16580762495869
789, 8.677087901061896
790, -1.805893230250149
791, -4.819166148569366
792, 0.9249684809847167
793, 6.904617317222346
794, 4.633364589513803
795, 2.653659365407748
796, 7.116156467453948
797, 11.34665180080492
798, 9.934009778602558
799, 13.15107236175163
800, 26.405524361422977
801, 35.36239636609207
802, 33.848744081037694
803, 31.487104971867666
804, 32.13145201897214
805, 30.350101112015636
806, 24.124069400658755
807, 13.270605561842785
808, 0.3915083532178869
809, -1.9791971296544943
810, 8.136044629805383
811, 19.900601693178942
812, 29.168721906521114
813, 31.2602171292815
814, 26.156297798887408
815, 18.328644289714248
816, 8.292001683936178
817, -3.769300044305055
818, -13.72673013129679
819, -3.05164430349123
820, 20.6344610879828
821, 26.5160260002458
822, 21.945485685734184
823, 30.039135572055784
824, 41.8160362152862
825, 37.03492595771604
826, 25.007660872607175
827, 21.99889725944422
828, 20.346528008236874
829, 9.566406982508852
830, -1.5807581890512665
831, -5.951752946630222
832, -8.229580222720415
833, -12.085893267779738
834, -11.953793658572522
835, -4.053753922305532
836, 6.886473623947495
837, 18.68760728388588
838, 21.75455743747989
839, 13.326621668838925
840, 7.6486178530208235
841, 10.042685692778377
842, 18.877283092058406
843, 30.78599703151167
844, 31.842190845447476
845, 20.944797096510683
846, 7.779955051214529
847, -2.090127401713289
848, 4.346942325112195
849, 23.9715302148511
850, 38.73274979527787
851, 43.39435833592461
852, 28.10569810531524
853, 1.96377027574772
854, -15.836923938903965
855, -21.187598190719655
856, -6.446563678978691
857, 11.462499172848311
858, 12.026950873580063
859, 5.594295498676274
860, 1.5397182863239323
861, 4.4552444858377385
862, 17.331030847762122
863, 25.086752986278043
864, 21.164836699700572
865, 13.166631330218024
866, 4.286420832163003
867, -0.28752933041278084
868, 0.7557543082239135
869, 10.983971228116843
870, 26.129523928509116
871, 20.9640419292532
872, 0.18344102625269443
873, -5.014801264656398
874, 0.7789530118202492
875, -1.4606738578245313
876, -6.581582939712007
877, -1.6866058414120744
878, 7.716108149734737
879, 12.937262722282412
880, 20.442793648330735
881, 38.000503682139424
882, 43.39395402861146
883, 20.526041636260743
884, -0.7736851928998476
885, -4.878543318928223
886, -1.6934352262287575
887, 5.478759985228862
888, 18.60952308675587
889, 34.09959488745608
890, 27.230234406706586
891, 0.7151786559857101
892, -7.865965101489564
893, -0.25137159353516836
894, 3.9872347665177585
895, 4.441407001218522
896, 3.28443756116485
897, 2.7629139102723457
898, 6.733206633525242
899, 15.951915986877793
900, 30.052372874852153
901, 35.5557282556224
902, 22.025222284362826
903, 6.377191705050791
904, -1.3769273037974017
905, -1.1101044423726307
906, 6.9579705445567015
907, 17.438686225842957
908, 25.30922132797241
909, 13.356067862024247
910, -12.712611728354204
911, -17.078959714304347
912, -4.111340638713955
913, 4.260945490422273
914, 10.211090640063048
915, 19.808726014739477
916, 27.58002577941261
917, 27.45229917952929
918, 27.626302868768562
919, 34.933262165498036
920, 38.51538680044814
921, 32.43548913750237
922, 20.60897103705247
923, 5.753734633858585
924, 0.45808995640027206
925, 6.0516144517750945
926, 16.123955759830096
927, 25.095581316157222
928, 18.551301580416293
929, 2.590224836995276
930, -4.002052491005088
931, -3.4090246922683036
932, 0.5226473577304205
933, 7.706300161278705
934, 18.37686121112074
935, 27.846813773084705
936, 33.60095639985002
937, 36.638182952995976
938, 37.623924372838246
939, 39.20738570820777
940, 39.26847391174715
941, 20.171870061426944
942, -10.409134438994897
943, -12.645276640326301
944, 3.8255820820527333
945, 7.878990525223344
946, 8.226830610644356
947, 20.185305604160476
948, 27.406849648227762
949, 15.389452793644978
950, 10.768459912920662
951, 28.2747494496507
952, 31.972907915865562
953, 12.287712760853083
954, -1.8772767662726437
955, -5.309048619149053
956, -4.646121680210854
957, 0.4397007587540429
958, 13.820447167472594
959, 25.691724481755955
960, 17.216600303622272
961, 2.9238262474414114
962, 0.1788646302197776
963, 4.650399832660241
964, 13.513474281566232
965, 14.306752411733214
966, 3.330659539788485
967, -7.14922307707775
968, -13.3064424226327
969, -5.931495094524962
970, 12.098488520967749
971, 25.773858447586463
972, 30.117072372356688
973, 17.848840731829114
974, 3.5669462974269663
975, 3.8490046592273757
976, 8.381641846748607
977, 10.094986345518464
978, 6.596934766042068
979, -0.9433257970745217
980, -1.4978527865573597
981, 6.643465771696356
982, 20.376153976752448
983, 32.1367919954987
984, 25.000009681837582
985, 6.631376260460911
986, -8.997921282604693
987, -16.29725573757196
988, -10.172170810555144
989, 1.9690239921419561
990, 16.929410440291576
991, 29.34272662459034
992, 37.571297062228496
993, 40.79451769881189
994, 38.798055087247576
995, 31.315389645621053
996, 20.001342379864127
997, 7.972455623883434
998, 2.04645516594519
999, 7.499044779870019
1000, 10.530622905656855
1001, 3.1734759225232665
1002, -1.6156384176165375
1003, -1.0096729358715493
1004, 0.08518542301681009
1005, 2.8599204950328385
1006, 14.329033173894004
1007, 23.131124817949967
1008, 6.7135524372861255
1009, -12.618041019766224
1010, -13.476774004892377
1011, 0.5689756384326756
1012, 27.855975050516463
1013, 53.393933046937946
1014, 70.09363797018295
1015, 63.521081554061766
1016, 38.94650961440129
1017, 20.849838914601605
1018, 16.516969197375147
1019, 31.44206332137628
1020, 49.83859350128114
1021, 58.439170503243986
1022, 50.723729386901596
1023, 25.464151033571852
1024, 2.998728262966779
1025, -9.96114386958834
1026, -9.784293737399366
1027, 0.930809417180626
1028, 14.809650478375715
1029, 24.92971271550914
1030, 22.50612898340296
1031, 14.695759390181138
1032, 6.464754446456482
1033, -2.3601094265668507
1034, -10.851955510490825
1035, -5.146872753371099
1036, 12.62802289319825
1037, 23.88913439913631
1038, 28.152307266096614
1039, 27.485859612108015
1040, 17.47554991084553
1041, -5.003605440643241
1042, -12.011078012583312
1043, 4.996286917602902
1044, 10.645187873301438
1045, 0.6917813233108063
1046, -2.5705747561678436
1047, 0.2896141936234926
1048, 3.5798545188349635
1049, 4.903335345093637
1050, 1.9352760869842314
1051, -3.2284109039933355
1052, -9.01241098654964
1053, -4.271768969164441
1054, 10.791944892953325
1055, 18.18219180336564
1056, 14.07407871092937
1057, -4.980536673434926
1058, -28.598923580460905
1059, -46.02092491790745
1060, -51.783066272458655
1061, -43.73441242968829
1062, -35.93515969703549
1063, -29.127912734631536
1064, -9.912591760268242
1065, 15.00647950638131
1066, 24.03952133047369
1067, 22.667947455522608
1068, 17.57823211771438
1069, 28.811171673942226
1070, 67.78615764656797
1071, 131.40080585242322
1072, 218.97175717865457
1073, 294.8690746414991
1074, 353.7828180112215
1075, 390.0079549042248
1076, 418.7276135893044
1077, 454.53519001600444
1078, 480.24547251961985
1079, 487.2545430144537
1080, 470.21853731113424
1081, 428.45129261085094
1082, 363.7460457099678
1083, 291.49547816424047
1084, 237.90916240218348
1085, 184.75984374883274
1086, 118.28496768018204
1087, 62.69285399467071
1088, 17.808956580547147
1089, -15.778918101951149
1090, -34.563678367741886
1091, -23.993627518158064
1092, -9.197583970841151
1093, -22.446838901185856
1094, -29.512750118006352
1095, -13.724824668284327
1096, 0.03733872312977837
1097, 6.926127240833466
1098, 9.78446808295439
1099, 4.014136607892397
1100, -19.16911214220727
1101, -33.57464496071134
1102, -18.506660585538157
1103, 0.6924819497335193
1104, 15.03715857349971
1105, 19.289043499756644
1106, 14.05318347139928
1107, 3.1113901856219854
1108, -5.219154847189657
1109, -3.0604306341938354
1110, -3.8886169175816576
1111, -11.910880690677914
1112, -5.230294230333584
1113, 13.215333510183427
1114, 14.522486612506782
1115, 8.020238150221758
1116, 11.34169143678946
1117, 9.823141478813795
1118, -4.042522040574113
1119, -9.332071582797653
1120, -3.6557695184969816
1121, 0.6786456072882174
1122, 4.58632870974543
1123, 11.930476087326497
1124, 17.16869028378369
1125, 16.548439173516726
1126, 12.38966872862784
1127, 6.673090907367168
1128, 5.981007895937637
1129, 10.134083941640256
1130, 16.64421004804035
1131, 16.955213349234782
1132, 4.8679577080952185
1133, -0.10659458472036931
1134, 5.766277719661957
1135, 8.614253256724169
1136, 12.974873079906956
1137, 33.580703769961474
1138, 55.02926163725442
1139, 64.25298786111534
1140, 66.3264156393061
1141, 64.29427982503876
1142, 64.31684299430844
1143, 63.98286287156043
1144, 55.725781374362214
1145, 40.24722730067424
1146, 18.601177611455114
1147, -4.500018571802229
1148, -24.197876155009453
1149, -10.18540338824414
1150, 25.09780368054271
1151, 42.77441140421615
1152, 45.674619332218754
1153, 37.51414306728657
1154, 21.362286719484473
1155, 2.3289081225675545
1156, -0.05120671640270302
1157, 4.437674010672254
1158, -6.856129700568999
1159, -12.799320028263992
1160, 1.4826810216991362
1161, 20.568094885896244
1162, 36.543962187529814
1163, 38.36641519473642
1164, 24.930902478267853
1165, -3.229428225601623
1166, -16.667573704955885
1167, -2.2680764075289517
1168, 7.577216706073614
1169, 7.177300742128409
1170, 4.028990162264563
1171, 0.48605015525936324
1172, -1.8026747996982522
1173, 4.562866341073914
1174, 19.72429195481618
1175, 15.80436087363023
1176, -0.820796241172502
1177, -2.0134919359757077
1178, 12.855516336740948
1179, 42.87020384756397
1180, 55.74678934703752
1181, 45.29693493371042
1182, 33.60212768813426
1183, 22.61587850845808
1184, 10.959658369424687
1185, 5.688217999919289
1186, 8.193178405378148
1187, 0.9491928873544566
1188, -10.233498688155578
1189, 7.639713880578256
1190, 34.75776647874727
1191, 41.94429011679267
1192, 29.256110655278917
1193, 1.3731244200530455
1194, -15.940071059924321
1195, -19.782026482010224
1196, -9.183364559570691
1197, 3.416016157841568
1198, 9.561076586718173
1199, 8.66382408530717
1200, 4.1632441001816005
1201, 8.114221432894283
1202, 16.684806448501604
1203, 22.60454146743359
1204, 21.95033178167887
1205, 15.916996557922175
1206, 21.594361652905718
1207, 32.36511640232857
1208, 34.01619120949954
1209, 32.43688638192907
1210, 30.57025993968
1211, 17.321635119225448
1212, 0.25056816480037014
1213, 9.429246057206456
1214, 18.0031923352808
1215, -3.072974275056822
1216, -8.862674670760953
1217, 9.277884512236596
1218, 22.473426098058553
1219, 31.79799069182036
1220, 45.1886677571847
1221, 36.71084491095917
1222, 0.5916745913077648
1223, -14.107345667589925
1224, -9.240162422866433
1225, -4.133231243124101
1226, 0.9137126188979892
1227, 6.7684932421689155
1228, 18.383750255970426
1229, 31.955024211049476
1230, 35.05002193309792
1231, 25.66245006170857
1232, 3.464225878868092
1233, -18.250921502939036
1234, -31.14074405011843
1235, -12.536821547848831
1236, 17.76194633832938
1237, 29.183315968728948
1238, 26.112542942870277
1239, 14.048985487365826
1240, 12.162258765104525
1241, 21.758283015488814
1242, 39.55063532578379
1243, 45.16078629192316
1244, 30.186538947930785
1245, 10.264263389549797
1246, -0.2972698792709707
1247, 18.681048599816222
1248, 38.28973920043518
1249, 39.131819228475706
1250, 42.63444806659936
1251, 50.42288757914457
1252, 55.380693621141745
1253, 56.88432932163823
1254, 53.809994729609116
1255, 37.70573084498574
1256, 16.135323974338007
1257, 17.190137438918555
1258, 34.03107739509551
1259, 55.33276844994225
1260, 55.15709494858493
1261, 37.709930272947986
1262, 37.429824049722356
1263, 42.75634389890729
1264, 40.96825120833182
1265, 37.52976392146502
1266, 32.21035701498977
1267, 18.992769382616643
1268, 13.492751852463698
1269, 27.38218543728817
1270, 32.03689612541211
1271, 20.73690814436577
1272, -0.4973277113572294
1273, -12.547362910865559
1274, 0.5539594736806066
1275, 11.75180607579432
1276, 14.025936984670807
1277, 14.009326399744623
1278, 10.023725361000743
1279, 2.392962074379284
1280, 10.808140152783835
1281, 32.22515124329266
1282, 32.804266618140446
1283, 26.946903455299434
1284, 30.10294918248246
1285, 32.16967495046947
1286, 28.561997759611586
1287, 14.366980909471295
1288, -2.909823549626708
1289, -17.100472800972966
1290, -6.211592180733987
1291, 24.95486355563071
1292, 43.95871888945567
1293, 47.249133851722036
1294, 35.60457853666685
1295, 27.5960705297789
1296, 26.451278784460555
1297, 29.321848809629046
1298, 22.241126457791324
1299, -0.8554577305289968
1300, -16.265387238149287
1301, -17.054242302201146
1302, 3.845876459496594
1303, 25.120226299072783
1304, 32.163577817915666
1305, 19.828487612135632
1306, -0.38664128395066655
1307, -8.020384304385061
1308, -5.174204759267923
1309, 4.623834947740761
1310, 8.439722260809958
1311, 5.494909557080973
1312, -1.7480806505886903
1313, -2.6509900303285576
1314, 2.9856714106335858
1315, 3.0430209504070262
1316, -2.040205404526205
1317, -9.494202676692566
1318, -0.5982014651931422
1319, 23.384305420758665
1320, 42.63563360916078
1321, 46.5151607855928
1322, 30.566301893410127
1323, 11.844192186690634
1324, 0.6696472960456958
1325, 6.393496580536521
1326, 6.663503919528921
1327, -5.4604798782938815
1328, -7.457141283384772
1329, 0.11789052413814716
1330, 12.763868224328235
1331, 22.281116498781103
1332, 25.04513324569234
1333, 18.702356424264508
1334, 13.092772085894467
1335, 15.883523498043814
1336, 16.278496996138983
1337, 11.437436620717563
1338, 1.07085526231549
1339, 0.15784324383821513
1340, 11.336188912148373
1341, 3.4401974643865287
1342, -11.819683124068888
1343, -13.42366681397607
1344, -8.983288397979777
1345, -0.24896832876265762
1346, 15.644636968909708
1347, 21.368201617297473
1348, 5.258799998404356
1349, -4.222256666675548
1350, 0.7148585590080074
1351, 24.752446558570682
1352, 37.770005603657864
1353, 28.296379290939512
1354, 14.354068640491732
1355, 8.416945545861836
1356, 19.25696405630606
1357, 31.779977625636093
1358, 38.5879422760263
1359, 31.47207295987937
1360, 10.42157195097434
1361, -16.494739662415668
1362, -12.163290635926842
1363, 7.662505035806589
1364, 12.31157474551992
1365, 19.71731022396216
1366, 29.37217580198285
1367, 18.220342205049747
1368, 6.6022631264954725
1369, 8.624816213653958
1370, 1.3871561776099952
1371, -4.396201298631695
1372, 15.598527959372404
1373, 28.07417710588288
1374, 24.73917371265088
1375, 23.717912306270136
1376, 12.190683879823155
1377, -14.498685514845874
1378, -6.499324301832075
1379, 18.97423018788595
1380, 15.054040596627146
1381, 6.0380205026426665
1382, 1.2235415593272592
1383, -4.6814294042469555
1384, -3.135837273436664
1385, 9.807911037956728
1386, 8.492351732294537
1387, 1.8201831126953039
1388, 11.368831024629799
1389, 19.353729746319914
1390, 19.623942738988262
1391, 13.785505947731963
1392, 6.2877545551687035
1393, 1.8612245315985092
1394, 6.321930776683075
1395, 12.547366361926379
1396, 8.6436546903833
1397, 2.6104356189835016
1398, 2.3552122708106253
1399, 20.152958461032995
1400, 23.524872076719475
1401, 3.1388790944374705
1402, 2.3214088302433993
1403, 15.341331229334628
1404, 32.30733469668485
1405, 56.20340715882321
1406, 69.4527378120165
1407, 38.08508518258304
1408, 8.05683756347753
1409, -3.1920289752188182
1410, -7.588461995116631
1411, -7.093645075669883
1412, -1.5878187712187355
1413, 12.760880172004363
1414, 34.7209861456613
1415, 56.768144737633065
1416, 55.21918130060385
1417, 29.947309096865865
1418, -3.1865440335245694
1419, -18.239640395424885
1420, -6.541909920915259
1421, 24.91277265101735
1422, 41.896760587900644
1423, 23.791590170654217
1424, 12.658431842742175
1425, 11.171240049327025
1426, 11.665547770214289
1427, 21.426607116175546
1428, 33.66543884672046
1429, 31.753717162368048
1430, 24.654734817363533
1431, 16.116736951126768
1432, 3.9222290682091625
1433, -10.866619806627568
1434, -23.669637381015036
1435, -5.903515659158529
1436, 19.7898589664228
1437, 21.90508505330081
1438, 16.199924643357463
1439, 7.41404135757648
1440, -1.4737331281676234
1441, 0.2550282400065953
1442, 7.571797251288444
1443, -4.533126607173472
1444, -11.27929506770306
1445, -1.1481923750884562
1446, 17.216709165498287
1447, 30.10331492721116
1448, 27.607813830509713
1449, 13.052820123381025
1450, 1.7825694911016399
1451, 9.64884014331983
1452, 12.16991957158416
1453, 4.2730056581672216
1454, -10.444464624390548
1455, -10.092463307074922
1456, 8.098559440486497
1457, 31.539437034213734
1458, 37.278338556258404
1459, 21.040172788133532
1460, 4.682713535492894
1461, 0.5776403510762975
1462, 10.687379578163473
1463, 14.632936870270441
1464, 13.149816644968723
1465, 12.759783347130451
1466, 29.374867659864776
1467, 44.04538597711098
1468, 31.56653913293576
1469, 6.568955779396219
1470, -14.248192839671447
1471, -11.997082957700513
1472, 6.757433995273004
1473, 25.39910260011493
1474, 8.222370535018854
1475, -9.777236132478265
1476, -12.091528118254928
1477, 9.415688748372077
1478, 37.730427312852726
1479, 58.02599773089082
1480, 58.961854765897215
1481, 49.82183929322696
1482, 38.45528597177122
1483, 28.209667585433408
1484, 16.949119645975998
1485, 7.041400678181844
1486, 14.339819845788043
1487, 27.620554036376234
1488, 29.0829040182864
1489, 15.848145527633278
1490, -2.815827524783799
1491, -12.576595626155495
1492, -0.5603080007035715
1493, 21.78266072007682
1494, 29.364597664082794
1495, 26.746123030936815
1496, 21.13719818714162
1497, 22.563864129628428
1498, 18.931159021007034
1499, 6.883927274693178
1500, -9.985693439624356
1501, -10.517156271384238
1502, 6.304092901526246
1503, 22.611432176186554
1504, 22.362567606109224
1505, 6.10276352664323
1506, -6.19044221855529
1507, -1.101434063094075
1508, 16.892127495320892
1509, 12.997975488728116
1510, 0.8137871553767582
1511, -6.561624395009176
1512, 4.596791602505618
1513, 15.210348904819966
1514, 12.842060861967184
1515, -0.8108929710112989
1516, -9.324649401711213
1517, -3.1008274692380837
1518, 19.292110974173966
1519, 28.33884292374796
1520, 11.228510013700316
1521, -4.656706278195998
1522, -9.291491043314636
1523, -2.166270977062595
1524, -0.09225714255921957
1525, 3.7504930449238145
1526, 14.601073638116759
1527, 27.277538219692588
1528, 40.263291171457695
1529, 47.477794448052464
1530, 26.20536204471614
1531, 3.4229514903443032
1532, -2.609851399035506
1533, -5.20253270776584
1534, 3.3411420916172574
1535, 23.125404566485486
1536, 23.930895617629858
1537, 14.80961575842207
1538, 3.7043653540088144
1539, -10.301815373450381
1540, -15.094829600099956
1541, -5.594744822847588
1542, 6.846183265732861
1543, 19.051779101037027
1544, 25.247908747317524
1545, 14.861529711266712
1546, 6.778755035265931
1547, 9.709492171960619
1548, 13.549504338345741
1549, 16.993266007669263
1550, 17.498408505310636
1551, 7.731639347725377
1552, 16.105658908174973
1553, 39.345862419225114
1554, 35.89633328253831
1555, 16.287834156611552
1556, -5.812607358424884
1557, -11.783610386607279
1558, -8.321737131931059
1559, -6.83528254170551
1560, -24.48125760108701
1561, -38.85829691108711
1562, -40.486833624402834
1563, -25.85138394599744
1564, -10.585788253497412
1565, -4.389343531716122
1566, -12.174186975008752
1567, 2.78212624732123
1568, 17.320548103886722
1569, -4.816448867617964
1570, -20.778069735274585
1571, -14.468865083509627
1572, 21.879605130254276
1573, 77.96977047007749
1574, 109.62755016235496
1575, 96.86185310829705
1576, 94.70132595471978
1577, 131.23849935949102
1578, 206.09167094648365
1579, 264.7801980624572
1580, 305.05820962718235
1581, 329.74762341978794
1582, 345.14662033478
1583, 359.6506369026456
1584, 362.29970047244205
1585, 325.594404205146
1586, 286.44791715039764
1587, 243.198040820791
1588, 175.7202864696933
1589, 101.96322325070287
1590, 47.36583233181409
1591, 18.950308310876153
1592, 8.53013124164363
1593, 5.50651590826692
1594, -1.7403617415843655
1595, -30.066497770177193
1596, -37.597875235537686
1597, -13.472214495936441
1598, -13.049463807632037
1599, -19.040774798384746
1600, -18.50196833266864
1601, -3.8956511196752217
1602, 15.201418603682214
1603, 20.84752182887769
1604, -6.425545824715755
1605, -25.44411016536469
1606, -18.149804780136037
1607, 17.78941878220826
1608, 27.79992006160205
1609, 23.32515017728383
1610, 20.804874299626817
1611, 23.88478576707439
1612, 26.308926636868136
1613, 21.03790012951572
1614, 1.2601198345237208
1615, 5.220384543010823
1616, 24.679427968343816
1617, 21.795063975494486
1618, -1.0458282147535556
1619, -23.714887927203335
1620, -24.36103117877542
1621, 10.311624360688484
1622, 32.036401267976544
1623, 17.94117794286808
1624, 16.5400160302504
1625, 25.894609727705756
1626, 37.71766267467365
1627, 43.31209003162144
1628, 24.77940278115625
1629, 8.359903699008555
1630, 26.972165986264827
1631, 27.930801926104095
1632, 17.941259547941854
1633, 7.8228628118936285
1634, -4.41226735091891
1635, 9.305493837666063
1636, 34.58915190307607
1637, 11.164636621968384
1638, -3.349849252570266
1639, -2.3708077888011303
1640, 4.603037025831554
1641, 26.886547377157513
1642, 38.6103331931281
1643, 32.751881073940694
1644, 49.015255450025506
1645, 59.6943115307663
1646, 47.453981943664076
1647, 8.396230203778032
1648, -16.90805824106519
1649, -18.28275410755009
1650, -3.7666198413203347
##END=



