##NAMES=
##LOCALITY=
##RRUFFID=
##CHEMISTRY=
320, -20.65455841316907
321, -6.663914439738619
322, 8.454380008713088
323, 21.118173749069683
324, 29.159860068659327
325, 30.258863336393006
326, 25.44707272535743
327, 18.868223930759996
328, 11.5251503874415
329, 10.306941991597341
330, 16.374532652309426
331, 21.01143403569131
332, 20.00038398138986
333, 14.26129413765193
334, 4.958338795519921
335, -4.593303525658484
336, -7.5926777649210635
337, -4.07661257125892
338, 5.165253369998936
339, 20.58146632911121
340, 38.36719415517291
341, 54.412858644552216
342, 63.52760988553928
343, 61.4403066541563
344, 53.397062374817324
345, 49.11143457998605
346, 47.65857036251509
347, 44.57747500278674
348, 39.621240000133184
349, 34.70412277703326
350, 30.249575008746433
351, 24.43645690133326
352, 16.326425854792433
353, 12.464097860268339
354, 18.023915211408166
355, 26.624318066424166
356, 25.93681292987094
357, 16.78242012677765
358, 6.028278904605941
359, -4.07859305391321
360, -5.611027585647207
361, 3.922672704359684
362, 17.704165397998622
363, 30.457039666491255
364, 36.50485018496693
365, 28.076613397392975
366, 9.819591350366863
367, -4.17466565880386
368, -13.652332229267813
369, -14.416952477310588
370, -6.2384958715983885
371, 3.390117159442525
372, 12.590438497074501
373, 23.52427668025939
374, 35.787959571568535
375, 46.89244127557413
376, 53.17747471495113
377, 53.354084926104406
378, 43.7452221743315
379, 25.436801896298675
380, 6.427254421284488
381, -10.488945860466629
382, -14.289173877434223
383, -1.114593691157097
384, 14.627361478414969
385, 22.39825940825631
386, 21.021845935089004
387, 8.836408760694212
388, -8.421692785355845
389, -15.74332678376868
390, -13.91883714609321
391, -8.126416960847564
392, 0.691000735997477
393, 4.077168363148303
394, -0.8648234173842866
395, -9.303904590639831
396, -19.15226550337593
397, -23.81413989885823
398, -14.58235166556915
399, 0.35195359297176765
400, 1.1027885521070857
401, -9.453836873698492
402, -15.867871704035679
403, -16.8023370860883
404, -12.448226141708801
405, -2.3979142315693025
406, 14.20209977682498
407, 38.9348894330642
408, 58.5231244893821
409, 62.17524410341957
410, 60.832689794824546
411, 80.10615865949421
412, 118.97047682344419
413, 158.39320193631102
414, 195.14867110307569
415, 214.07679191690568
416, 213.2314393937868
417, 204.2755728168877
418, 191.2745730897832
419, 182.04009055099323
420, 181.42905926063122
421, 186.35184335151916
422, 193.09408501097278
423, 198.13168019594468
424, 193.6534002529006
425, 183.2949822338178
426, 182.88099959112515
427, 191.99597679696217
428, 194.0885747681741
429, 185.64915650241983
430, 167.7654076009967
431, 140.8701180069511
432, 105.86943554144
433, 63.4000843720014
434, 28.15306354345921
435, 7.705890815291241
436, -1.2273139655671912
437, -2.609804811041613
438, 1.514522448880598
439, 4.073771297488747
440, 4.5652196519668
441, 3.670760681374304
442, 1.3205972498226402
443, -5.071192435301782
444, -16.952351226700557
445, -23.84642084760253
446, -18.53205559626258
447, -6.58122366396492
448, 5.589745187578956
449, 17.809622337405017
450, 26.532853710062227
451, 30.973003084614902
452, 28.56596601783349
453, 20.37082753395316
454, 15.318237873870203
455, 16.692418463189824
456, 25.563171057251566
457, 40.309886492619626
458, 47.658606500393034
459, 40.16111781280961
460, 25.483238201651147
461, 11.168267127309264
462, 0.8671544572434868
463, -2.0777971599172815
464, -0.766298345618452
465, -3.389398537474335
466, -9.225505268806046
467, -11.440540537249035
468, -9.731773450081164
469, -8.258911847646232
470, -7.663925437725993
471, -2.535675227365573
472, 9.639584221848963
473, 14.37903639501019
474, 1.9058471277558056
475, -12.885399228482129
476, -14.604027221726938
477, -8.69334365409668
478, -4.710225432687366
479, -2.071521202326039
480, 0.8425872917159722
481, 3.780804891279331
482, 3.3436546767934487
483, -0.2965605704093832
484, -1.1344073894115354
485, 1.8987177276967486
486, 2.3554362198510717
487, -2.2897335175603075
488, -3.7406142715926762
489, 3.4274277787453684
490, 12.667755547033266
491, 15.939678986863328
492, 16.725434226707875
493, 21.070227758941655
494, 25.64448645592074
495, 21.03124213758747
496, 9.483596788715658
497, 3.168306777442922
498, 2.442987087410984
499, -2.8238582732110444
500, -14.402944057457717
501, -22.770000906202768
502, -25.330552074300613
503, -21.640413241537317
504, -11.017754158638127
505, -2.1164090752672564
506, -1.6036800320143811
507, -3.0912522915496083
508, 1.2789192269656269
509, 9.662319981981454
510, 18.355562064002697
511, 30.200409280016174
512, 52.66323426652798
513, 86.6359809527321
514, 118.60637979374133
515, 147.4553792315528
516, 172.56692481505252
517, 193.07062470573692
518, 198.8235761259648
519, 187.02616366484835
520, 170.73388893583433
521, 156.1607986068375
522, 143.49497517006967
523, 132.87148319178596
524, 123.11706572329422
525, 112.91545242039865
526, 98.18373671286008
527, 71.95470596454561
528, 41.23796755875628
529, 28.144180951086128
530, 27.89554744430643
531, 24.282159962133846
532, 14.81272822612209
533, 11.289580983194355
534, 13.640879507199315
535, 8.660685990630554
536, -4.658978433032644
537, -11.181475535710888
538, -5.946325973720377
539, 5.493201211156702
540, 21.162090421755238
541, 33.599860417682976
542, 37.70251075383567
543, 36.32403400100793
544, 32.62784781152459
545, 29.204918797861865
546, 30.263125612177646
547, 33.46953386087171
548, 33.27831629728189
549, 29.41627677578117
550, 21.72264892525982
551, 11.047199971244936
552, 2.5672507397671325
553, -3.334807967715278
554, -2.294541149979068
555, 5.766746808452808
556, 10.781245982259861
557, 9.645626424033253
558, 12.843698241954826
559, 22.837259552426076
560, 28.02599461341788
561, 22.20425423415918
562, 11.724911160286865
563, 1.3660591347679656
564, -7.112469408146808
565, -12.80935009528639
566, -13.679638344994146
567, -5.836435764369071
568, 7.613915852518403
569, 19.811540042079287
570, 26.88432891320599
571, 20.74056867057334
572, 4.235379341556836
573, -9.27498125022612
574, -18.04589321226831
575, -13.275445989816035
576, 4.96346170664674
577, 23.40456213220523
578, 37.9499537209681
579, 43.29886834631907
580, 38.37273727064894
581, 31.058251225193544
582, 24.293228443090356
583, 16.469913525223546
584, 6.801695719437248
585, -2.0269305799174617
586, -9.562641880019783
587, -14.945375451448399
588, -17.265704707442637
589, -12.9956826844832
590, 2.8890339985450737
591, 22.28003521877281
592, 29.146691565129004
593, 27.767790507385598
594, 27.647278006829765
595, 27.651258660038366
596, 23.83800006467618
597, 19.15041532376881
598, 26.712001866750597
599, 41.02666355842166
600, 41.06669419684067
601, 26.49152976350024
602, 11.192502543132832
603, -0.7787013207394011
604, -5.812815010258419
605, -3.659876274677117
606, 2.3000416171416873
607, 11.293022182253935
608, 17.156628053492113
609, 17.669454300712005
610, 10.596819542571211
611, -4.812817808553518
612, -14.893010870217495
613, -12.669338279994008
614, -9.249934879735065
615, -12.409308677158151
616, -9.441728890901231
617, 11.802377920335857
618, 36.65588299704814
619, 44.40687672638933
620, 42.74837023969167
621, 42.939770447592764
622, 39.91166437389529
623, 24.354589930626844
624, 4.734307844792966
625, 0.6209808490525575
626, 5.613855398660235
627, 2.2777867198569766
628, -5.8418781996133475
629, -3.6744012559279327
630, 7.670403696061385
631, 19.180831574967215
632, 28.9308488261986
633, 36.37799307865589
634, 40.154111311034285
635, 32.55040915261088
636, 15.422196534384966
637, 13.386636398868632
638, 27.982152651887645
639, 30.75411563684611
640, 16.618079033137747
641, 3.718000869333082
642, -2.4479999632021645
643, -4.800787400015452
644, -4.022421592956562
645, 7.338904665726659
646, 32.43790971437693
647, 41.08430523738798
648, 19.98507211792412
649, -1.7659577384042677
650, -8.396472301550148
651, -5.7890969450781995
652, 2.943382086878046
653, 12.842449265547202
654, 19.26006475758186
655, 22.739018574497095
656, 23.751959813598205
657, 23.184621385955325
658, 21.93948815782005
659, 19.40414425369454
660, 14.852995125482266
661, 8.296940477735916
662, 0.5824364263157804
663, -5.591142477908306
664, -5.450286494602096
665, 0.4123925219573721
666, 11.408026789272753
667, 24.302584690198728
668, 29.426284773991483
669, 29.73408825945762
670, 32.27784404980821
671, 36.19671662228757
672, 38.73607444432719
673, 36.85186629862892
674, 22.558287001415465
675, 1.1869526497621337
676, -9.611671414237208
677, -12.548315015841581
678, -17.367179818611476
679, -20.595976809869626
680, -5.23711990904394
681, 22.34155915617339
682, 24.32996703765457
683, 5.832817725600762
684, 7.723309128317851
685, 29.046247653611772
686, 40.6168080757202
687, 40.208453703111445
688, 35.69839479390885
689, 27.93333964397516
690, 15.252553406411607
691, 1.48887399655041
692, 1.1004661593015044
693, 14.613169132022449
694, 29.096892160111565
695, 39.163502886259266
696, 35.524620836145914
697, 18.61373036794339
698, 5.8908637790341345
699, 1.5057578262994866
700, 4.147508647527047
701, 12.41299379770544
702, 12.913178256947958
703, 4.082964268067826
704, 0.11503710619308549
705, 3.297789844761155
706, 7.033757457263619
707, 10.487749523084403
708, 19.879370846583697
709, 34.65711739405515
710, 43.14767407742784
711, 42.717523522114334
712, 39.978747432785894
713, 36.31717209831413
714, 25.942835352065686
715, 8.205574883245845
716, -3.414403759673405
717, -6.599409793020641
718, -5.119978034998439
719, -0.06331427577833892
720, 6.577091924897559
721, 14.268440446112436
722, 16.70858791722185
723, 12.464809065342251
724, 5.558938275689343
725, -1.4361668203569025
726, 0.920790901482178
727, 14.45514132752669
728, 18.816111616347825
729, 9.080772256181717
730, 2.3947467649400096
731, 3.305373149697516
732, -0.044754979711797205
733, -10.219256017761381
734, -11.077514764543594
735, 0.16313958013051888
736, -2.2801387944864473
737, -23.39592966250575
738, -29.26712961219846
739, -12.530483331346659
740, 2.7271589887100163
741, 11.451462465324767
742, 19.328709298846206
743, 26.912534117651376
744, 23.68620429155817
745, 9.157203245809342
746, 5.430915037658906
747, 15.381919531072981
748, 20.427846975137072
749, 17.605005711730882
750, 17.963090161360014
751, 23.250622309880328
752, 27.62809620993812
753, 29.311886512401088
754, 24.366762776868654
755, 13.548320614846489
756, 7.368478105779104
757, 7.809960560596664
758, 10.316523668594982
759, 12.349083959786185
760, 8.356454417054465
761, -0.9903242284990483
762, -7.372735138291318
763, -9.565847635084538
764, -4.755992175634674
765, 6.265454654434052
766, 16.980170879294292
767, 23.352651276893994
768, 15.116478873819688
769, -2.7592012735867684
770, -7.520209200624777
771, -1.4173537539231802
772, 2.397984686950622
773, 4.344621226096024
774, 8.356043115540615
775, 12.254946151014792
776, 10.342034982464611
777, 4.531133995726577
778, 1.050995949215121
779, 0.07592688122304025
780, 2.0466996078594093
781, 6.5804405927938205
782, 12.892958319604077
783, 18.72782480963133
784, 21.221856626711087
785, 19.648974513214398
786, 12.929018318424824
787, 5.999911284234258
788, 6.5509076132298105
789, 12.210861087648482
790, 20.444236964432548
791, 28.038550620188744
792, 32.84919006980135
793, 29.429339759481536
794, 12.793917887641328
795, 1.2287611197925798
796, 6.985937760262914
797, 20.81792507549153
798, 35.229825528654146
799, 44.45683692159582
800, 45.11801070846877
801, 37.188022016043305
802, 21.200102032212726
803, 10.712803274752332
804, 12.138489503907294
805, 16.357124112490055
806, 18.461801703281253
807, 14.786859098315745
808, 4.702563127972553
809, -5.918778767789263
810, -14.785792855378077
811, -6.999771641437746
812, 17.27971638702593
813, 29.54244756586877
814, 26.430358491490097
815, 18.505259701212708
816, 7.897494673399706
817, -2.1176098038458804
818, -8.939269124846305
819, -1.30327898559608
820, 16.434375386970714
821, 25.950231026521124
822, 26.411083901335587
823, 18.781014501236314
824, 6.911205079053616
825, -0.8323071382756098
826, -6.4647817604513875
827, -12.950679046968162
828, -14.866254022994326
829, -4.296374072989238
830, 7.399996827170526
831, 7.56102604247053
832, 5.797561675239194
833, 10.579780405129895
834, 16.80530780427989
835, 21.445002999484586
836, 21.810796079506417
837, 16.6159499644441
838, 8.615322374766947
839, 0.5023925971004246
840, 1.5302824329855866
841, 14.453033552370016
842, 33.413405472727845
843, 52.89980380359975
844, 56.61265105050006
845, 43.61584392586201
846, 27.21186751459527
847, 10.642197056142322
848, 0.019626907967904117
849, -5.961915344053523
850, -10.584881387098449
851, -12.376165346214293
852, -6.024788521110622
853, 5.382135109889077
854, 15.064804419379925
855, 20.289994208485496
856, 18.046820374631807
857, 11.856692957089763
858, 5.794865844794458
859, 3.8833511245761656
860, 8.805996370017056
861, 18.950564208406377
862, 31.66627279741897
863, 32.948406782860275
864, 17.263714109350985
865, 4.671749898152939
866, 1.6734819185421657
867, -5.2719511127675105
868, -17.629021772249416
869, -16.028413601438842
870, -1.2983492303628736
871, 1.64088406068322
872, -5.192694125037633
873, -1.8598008024332557
874, 8.361602895076885
875, 10.13492331405405
876, 7.571388798462067
877, 11.746992694220808
878, 18.263691626851596
879, 21.178238652560594
880, 20.782130322513694
881, 17.472795423762363
882, 15.575891881477219
883, 18.171335466810433
884, 16.993883744881714
885, 8.262621921198388
886, 6.97754468696894
887, 16.938224994522443
888, 18.66290432631513
889, 9.189435336370934
890, 6.527058220357503
891, 12.34744052793667
892, 18.787535836049756
893, 23.952059059280145
894, 24.659612131208178
895, 19.251316300958024
896, 4.333793201676599
897, -11.30026622918922
898, -14.534713701925739
899, -8.49484410512514
900, 3.737348443662995
901, 10.455919665486363
902, 1.311917936158352
903, -5.850555080000959
904, -2.569017461159092
905, 0.13431491034907594
906, -1.1209210626134336
907, 0.9878772436641157
908, 6.685872520805333
909, 3.915731641214734
910, -2.4050255456718332
911, 18.557214992399167
912, 57.81751608231343
913, 71.55448146408116
914, 66.30636312430488
915, 60.076844905295275
916, 45.831531398894185
917, 13.662341625941735
918, -12.23083235366721
919, -15.198883021884285
920, -12.433931081593983
921, -12.3659574301887
922, 1.1741289086385223
923, 33.173178167081915
924, 58.7251977920173
925, 71.19460951981182
926, 68.58599734516383
927, 54.20178032039621
928, 41.65401748481099
929, 34.71405657446303
930, 42.978862258458776
931, 56.02061668759234
932, 62.005166594517505
933, 56.48552458562381
934, 35.17344595488021
935, 12.762492450008267
936, 0.03211195679841694
937, -6.4920297658641175
938, -8.60612473268111
939, -8.805923574099324
940, -6.00476711757392
941, 10.819682359990566
942, 39.689915344831206
943, 58.48783884114255
944, 64.08819884723698
945, 53.8832048309805
946, 34.02807165652939
947, 14.312810079516566
948, 4.301978385245093
949, 10.438328227768125
950, 22.159549541481283
951, 31.32376413176962
952, 27.932348378619736
953, 10.588992278085243
954, 0.330115631379158
955, -0.7816774938132767
956, -0.388717978682962
957, 1.8246108638822989
958, 9.991538801334173
959, 17.284986332510016
960, 10.672780738610527
961, 0.4388163193011678
962, -1.3310226073876947
963, -1.3264775348138755
964, -3.6435743308197743
965, -2.252326905274913
966, 5.22768643417794
967, 16.306432141062942
968, 28.61805112237198
969, 36.77989727134582
970, 37.5249872878785
971, 23.133860581896897
972, 0.8991334921211092
973, -14.326492076004797
974, -22.628101515780145
975, -23.61354898535319
976, -16.39983772142341
977, -0.7500999613043859
978, 3.9969197820469162
979, -5.292170354417976
980, 6.3932493633706144
981, 38.810243051062116
982, 48.737125900607225
983, 40.35892811193071
984, 38.322704869030986
985, 33.112443354610605
986, 7.961253235247568
987, -4.426809880217661
988, 21.23492546523039
989, 44.22899614127118
990, 43.07742441089658
991, 42.55522669894981
992, 46.58462489920612
993, 36.419460775983225
994, 14.782561613171765
995, 1.6020991399177547
996, -4.793234303159352
997, -8.303305181823362
998, -4.1842573226585955
999, 13.002381183321631
1000, 28.673914201587195
1001, 32.660028638889344
1002, 29.92867106069525
1003, 23.51382443046714
1004, 22.545392430971333
1005, 25.500222432501687
1006, 21.5904507337641
1007, 12.02487206823298
1008, 2.100246872675143
1009, -7.594966205304445
1010, -16.16629452475763
1011, -8.466185770787888
1012, 22.416445599453255
1013, 38.76991967423555
1014, 31.59469276401478
1015, 19.60486029517051
1016, 8.867028198967546
1017, 9.634807236158395
1018, 19.802303745103927
1019, 33.33610079793834
1020, 39.86487786117141
1021, 30.382304754582492
1022, 19.182384547870697
1023, 16.04414497537664
1024, 29.88036386772046
1025, 54.096003964250485
1026, 52.50599726624159
1027, 28.276778280982853
1028, 2.0111354149676117
1029, -14.557095818899143
1030, -8.7680548786102
1031, -0.6461579141600851
1032, -3.11982011958753
1033, -4.957632690626269
1034, -2.8018457268367456
1035, -1.3441625839404878
1036, 1.4975790725588922
1037, 15.958349038929555
1038, 28.26669324884415
1039, 11.999380433262559
1040, -7.235011779514025
1041, -6.712819943494196
1042, -0.8579241328361604
1043, 4.561354133185432
1044, 13.771003654863762
1045, 25.32177043610818
1046, 31.223009238940904
1047, 32.36873022336704
1048, 32.669060869760415
1049, 24.971593262517672
1050, 1.7870688196958326
1051, -14.351139919830075
1052, -14.012551013175198
1053, -7.482757692883752
1054, 0.473503067648835
1055, -1.5558879128593617
1056, -13.486350995085559
1057, -32.1147923078297
1058, -48.05829767985733
1059, -49.9004468875919
1060, -38.589166704937725
1061, -15.856011623215636
1062, -7.139895475223966
1063, -13.873359437740874
1064, -10.435683356924073
1065, 0.9813745055075742
1066, 7.594258966340021
1067, 19.86859065495173
1068, 50.4946473942332
1069, 86.75186869614481
1070, 126.3483593644678
1071, 199.19672186299567
1072, 289.82129565606147
1073, 356.32453146000717
1074, 398.0075887160265
1075, 423.62744028637553
1076, 436.3390181271516
1077, 439.33104364795327
1078, 442.8387234314291
1079, 448.636400077035
1080, 432.33060905141656
1081, 393.2627702643872
1082, 348.50110872102823
1083, 299.205784735248
1084, 244.72405471137154
1085, 181.21186076961703
1086, 106.92305904975092
1087, 54.01533365539672
1088, 24.010849393603166
1089, 7.695518087464279
1090, 1.2366568264251327
1091, 0.8283208015632226
1092, -3.2611582947943134
1093, -23.029835467814337
1094, -35.34467522068758
1095, -29.10291421645229
1096, -21.460766474531283
1097, -17.14179575986668
1098, -19.13559100079874
1099, -22.408298644963224
1100, -16.73078674918611
1101, -6.264183197569082
1102, 5.761259562005307
1103, 17.12796450081464
1104, 25.253664733227424
1105, 25.836291057400103
1106, 21.488559160452724
1107, 20.843645350498264
1108, 16.9464760123617
1109, 1.5627878935108583
1110, -11.424297128673516
1111, -16.332143269733933
1112, -12.662299403732277
1113, -3.343759426436918
1114, 0.6457064154014915
1115, -0.15132249703356138
1116, -4.026392842997666
1117, -4.23761456631064
1118, 3.054010819483892
1119, 11.360495335950418
1120, 17.668372619860975
1121, 19.15446013262681
1122, 17.809083185663667
1123, 17.88757870662539
1124, 24.615498485618446
1125, 40.094594678348585
1126, 38.144070360157684
1127, 15.845532470495527
1128, 1.1246711120943473
1129, -6.314921267083719
1130, -15.830766042894538
1131, -14.912834451226217
1132, 6.292918010319909
1133, 14.632916713831264
1134, 3.8246125631992527
1135, 12.80796395052721
1136, 34.038708492051
1137, 34.58658383886427
1138, 27.58596024034091
1139, 25.696270086181585
1140, 21.69670287053691
1141, 14.949879838639617
1142, 18.493685759075788
1143, 29.652665739845588
1144, 35.761915743986265
1145, 36.40508114308136
1146, 32.175285001885186
1147, 33.87817848693612
1148, 40.40679702512557
1149, 24.706844216721038
1150, -2.8174562668057206
1151, -11.611032352179564
1152, -11.961043955399873
1153, -11.846376184980045
1154, 2.1464208177028468
1155, 26.887848686988036
1156, 18.71397985568865
1157, -5.385373447469192
1158, -2.446797466772523
1159, 8.59090963014728
1160, 14.45485471959546
1161, 21.6968899993567
1162, 28.903632925170314
1163, 21.439337427537566
1164, 10.875048107471457
1165, 19.330946612432626
1166, 25.7986111701332
1167, 18.610049901345747
1168, 3.6911834593033745
1169, -11.974062713793046
1170, -13.174617910878169
1171, 1.1838598398830982
1172, 31.427904399343333
1173, 45.15630486674968
1174, 30.269209711198528
1175, 8.662064327401367
1176, -5.45014588132517
1177, 9.562901611587222
1178, 34.85315112004287
1179, 49.33660075629473
1180, 48.60062140057585
1181, 32.696853511039535
1182, 9.084358821629166
1183, -8.26035035852101
1184, 0.17483924873931755
1185, 9.42971523688584
1186, 4.809275470093326
1187, 6.1464351228776195
1188, 12.738823833201423
1189, 6.505077302919972
1190, -3.7246407307966365
1191, -6.576533192876241
1192, -6.405691314756723
1193, -4.310340538008859
1194, 3.370992042667922
1195, 13.390068960283543
1196, 16.176172820087913
1197, 13.483962021278785
1198, 7.013764262418363
1199, 0.10925149850891103
1200, -3.5607975619641365
1201, 7.770283532732947
1202, 26.05554768868228
1203, 38.16111965590471
1204, 45.16203097258699
1205, 48.35681183632687
1206, 52.207982297571334
1207, 55.70041019324458
1208, 55.5688452651475
1209, 52.29915558295397
1210, 46.95627789451237
1211, 45.82338617390337
1212, 46.12776446742873
1213, 35.28064770129754
1214, 19.35493044170198
1215, 7.564042888342556
1216, 1.266309506552716
1217, 1.1927892673609222
1218, 9.282830721425398
1219, 13.4363551350757
1220, -6.630996300816605
1221, -14.395412913509517
1222, 4.592983814801755
1223, 26.35089124467413
1224, 40.56273096600967
1225, 35.88231506695115
1226, 19.313292588157765
1227, -1.7087435921841916
1228, -6.90155930842775
1229, 1.028725328001883
1230, 1.3137760459735546
1231, -9.270152547222551
1232, -31.476131857517885
1233, -35.32866654856184
1234, -17.752054207946458
1235, -5.461232145912163
1236, 0.9936439733369298
1237, 3.527799100484117
1238, -1.6114129579409564
1239, -10.671720805375344
1240, 2.93593770785219
1241, 22.448645993357786
1242, 11.33784940571627
1243, -0.2946718024002166
1244, 2.641778197337544
1245, 12.389713101992356
1246, 26.821731776092065
1247, 41.11968585832574
1248, 44.602715050612005
1249, 33.42340458956369
1250, 30.884455653740588
1251, 42.09167264362122
1252, 56.75632276201395
1253, 61.044115150273456
1254, 46.899160623549506
1255, 34.72389869256244
1256, 37.799136878763875
1257, 69.39135889714953
1258, 91.72074474907117
1259, 77.83471039235155
1260, 59.784421629479766
1261, 44.97661936125428
1262, 28.923489556094637
1263, 29.418551265992164
1264, 57.432733711765195
1265, 66.83773557899963
1266, 54.20593202862574
1267, 50.17707530232792
1268, 49.99960123220603
1269, 47.09535013770619
1270, 48.72580215625999
1271, 54.34104933694425
1272, 54.556987042702076
1273, 52.58515444643854
1274, 51.3465342572415
1275, 35.07561559318242
1276, 7.118188457789529
1277, -4.1458382526441255
1278, 1.7519989344405076
1279, 23.208984843851113
1280, 39.444277101769785
1281, 41.2169583769637
1282, 19.276639343882607
1283, -5.808199396913324
1284, -13.95099970024944
1285, -4.379431324000052
1286, 14.632469613115063
1287, 14.392997672401407
1288, 6.566874969033279
1289, 4.132459222265197
1290, 9.57807907303777
1291, 15.310170106064788
1292, -0.11597836815485607
1293, -13.029818919728086
1294, -7.136259151159493
1295, 0.9900540243866089
1296, 9.030425634655558
1297, 18.932987970568774
1298, 18.79060090895564
1299, 4.381326355223791
1300, 4.251764129768617
1301, 14.540751097440989
1302, 15.655397485157664
1303, 8.44631700863647
1304, -2.8991798992562963
1305, 1.0253815383298388
1306, 11.97278849100553
1307, 10.303139305208788
1308, 0.45800010800758173
1309, -12.705269537255163
1310, -18.504785395249883
1311, -12.595459192074259
1312, 8.33803773202294
1313, 14.417898857842374
1314, 2.456090939330352
1315, 1.0304276701215258
1316, 11.017138286711315
1317, 30.513589139081887
1318, 42.01897262599209
1319, 39.08988882999597
1320, 16.771874100065133
1321, -3.7671143111324454
1322, -8.64781905547784
1323, -5.4206596672072465
1324, -0.8673421600683469
1325, -5.169387895538193
1326, -5.32750916293935
1327, 2.8543302415109792
1328, 6.645570459946384
1329, 6.6554668114861215
1330, 6.330681082052934
1331, 2.122569720335605
1332, -3.2386828148364657
1333, 2.292285977189522
1334, 8.914699234231193
1335, 7.522082200773866
1336, 8.579224692266962
1337, 12.374914318554374
1338, 14.000060090727857
1339, 14.977047564886107
1340, 14.191801917066186
1341, 0.39963913477618007
1342, -14.129388296853222
1343, -11.155476707860544
1344, 5.074163117255239
1345, 28.72003541840013
1346, 40.21453818261489
1347, 40.72308856585096
1348, 32.12268959346511
1349, 10.888987898747018
1350, -8.236238236876034
1351, 1.4974528904031104
1352, 8.861100729003738
1353, 5.756805640157154
1354, 28.78007678668655
1355, 46.57718639678001
1356, 20.83672646815012
1357, 0.7913903597734588
1358, -4.621438752592212
1359, -11.393548057726093
1360, 6.442828782653123
1361, 57.202953331490335
1362, 73.28032928688049
1363, 56.83960380926192
1364, 28.88207813894587
1365, 15.078973292584578
1366, 20.631662277369742
1367, 26.633167147477934
1368, 22.27272908536338
1369, 3.845724440700451
1370, -3.481298373502341
1371, -4.042700326481281
1372, -11.104589735185982
1373, -10.101866181045807
1374, 0.56757632364247
1375, 6.101264004410723
1376, 17.50757151405037
1377, 38.257846955285004
1378, 28.056617416899144
1379, 1.0090096531562267
1380, -5.1281311620380166
1381, -1.2487926646119831
1382, 8.458178379012224
1383, 24.36684770688862
1384, 35.477475490903316
1385, 35.42141171318258
1386, 35.54088082057865
1387, 42.05704692000313
1388, 60.18770791316547
1389, 65.8561231595288
1390, 50.95329211221997
1391, 18.342527165893443
1392, -9.435599388333685
1393, -19.514415467459912
1394, -5.3915152724439395
1395, 17.004938392583654
1396, 25.525778475166362
1397, 35.1508389032133
1398, 45.285410270557804
1399, 41.327053804710886
1400, 38.68682313659406
1401, 44.098279815113074
1402, 46.35568814181556
1403, 44.51580839420353
1404, 39.06119523651182
1405, 29.999690122363972
1406, 18.893781380989594
1407, 10.95801368092225
1408, 13.110896516928506
1409, 22.877856076241642
1410, 19.28412472429045
1411, 16.341012630864043
1412, 25.332059663267273
1413, 33.81467169249527
1414, 36.86874915063777
1415, 30.144072365817465
1416, 11.366326190866857
1417, -7.382387422192778
1418, -2.8601819166462974
1419, -0.9623819482751514
1420, -9.331338951377347
1421, -9.208156680293087
1422, -8.840196674624622
1423, -11.824034032738837
1424, 9.5314602091712
1425, 33.09039116018266
1426, 21.470260502556357
1427, 14.736363634777717
1428, 19.42298889306653
1429, 23.90050549165403
1430, 19.918270594598198
1431, 6.544690758702018
1432, -6.320168921369714
1433, -12.159447736639095
1434, -6.6040943999323645
1435, 10.238061663006192
1436, 25.03315276191779
1437, 22.082562283125753
1438, 26.741855684852453
1439, 35.70128608436107
1440, 31.911431721559893
1441, 16.987344185660504
1442, -2.2453643468797964
1443, -9.513354116622168
1444, -1.3380486618596024
1445, 19.146552734534225
1446, 29.060871650989384
1447, 23.665409160628315
1448, 5.3459604332663275
1449, 0.546590418071446
1450, 5.990881229617116
1451, 12.351291451229372
1452, 8.733641261053208
1453, 1.6701209413174638
1454, 6.927364762864272
1455, 15.593827780950733
1456, 19.68890900446422
1457, 9.801506233957525
1458, -8.674125497183695
1459, -25.034534857044946
1460, -11.116597452020642
1461, 7.9021527810919
1462, 14.456157666936633
1463, 9.27366847451458
1464, 12.146183055330084
1465, 36.7060220931055
1466, 52.700699333079
1467, 46.23196545732071
1468, 10.688988128527626
1469, -9.026081551941843
1470, -4.684616443443247
1471, 19.903624408133282
1472, 25.81058108288744
1473, 8.086288014893853
1474, -12.646829453460668
1475, -5.9722272218430135
1476, 24.822994830443122
1477, 29.53782123029123
1478, 16.04729183905215
1479, -2.4639723354046055
1480, -0.1495827872342943
1481, 19.681915782683518
1482, 43.317751976315094
1483, 26.242688191099433
1484, 0.763427628049385
1485, -3.1909832640726563
1486, -3.4826155574655786
1487, 1.0369939363426965
1488, 14.232001296931912
1489, 30.451221028923555
1490, 48.59866342953228
1491, 68.1599356653544
1492, 62.869218664259506
1493, 34.75748844303803
1494, 0.3032960052917133
1495, -4.786385659983807
1496, 11.652960126798916
1497, 18.42407356357853
1498, 15.002456708866475
1499, 6.25429039843084
1500, 2.692263736619452
1501, 11.994403342392388
1502, 26.433719439669858
1503, 20.874996448466845
1504, 6.3631536044645145
1505, -5.701572609403229
1506, -1.8432452332426692
1507, 9.56067065901243
1508, 17.047107781680324
1509, 0.09991739208817307
1510, -10.505262238428486
1511, -4.716495625860489
1512, -2.2135978531835008
1513, -1.246747920838061
1514, -2.1290814459666763
1515, -12.47108545427227
1516, -0.3370129743909729
1517, 40.73584420522138
1518, 51.111202792852055
1519, 41.49321363601962
1520, 23.72310648665507
1521, 1.86476700701337
1522, -9.458324092608791
1523, -4.586870959864882
1524, 5.369136950816255
1525, 13.099861035107779
1526, 15.77971441345062
1527, 24.51886679723748
1528, 24.597986389028165
1529, 12.07903132357751
1530, 19.523028392470906
1531, 24.59351507460633
1532, 15.715269673346029
1533, 17.714755416658363
1534, 17.43072130940959
1535, 9.5893398863318
1536, 18.92383666218484
1537, 19.88299277201827
1538, 1.710587996123877
1539, -5.410567008102589
1540, -10.340470630278332
1541, -15.10578896815241
1542, 0.9584256664309123
1543, 14.848606990876078
1544, 14.152015207021122
1545, 12.592039746267119
1546, 7.748118848004651
1547, -1.6763638559348237
1548, -12.900595156816735
1549, -6.7672072884781755
1550, 16.933395291404395
1551, 26.709251082000037
1552, 20.361439093976287
1553, 3.882989455971483
1554, -5.813032227265012
1555, 1.486769948439587
1556, 15.280308225030922
1557, -0.5775947933811949
1558, -30.94372637710603
1559, -55.2659429942737
1560, -41.72450407881024
1561, -13.011274633306584
1562, 10.040305473862418
1563, 2.871881008346463
1564, -11.830517115849034
1565, -19.509872245644374
1566, -7.850139247981588
1567, 10.1704448249709
1568, 26.432767442269096
1569, 31.000616432637344
1570, 19.952018177284117
1571, 9.885543244939981
1572, 14.086539498763614
1573, 25.02967743500062
1574, 53.00713034598539
1575, 106.34906300061493
1576, 177.30264314343822
1577, 245.37215039062266
1578, 302.1279517301325
1579, 337.5041845393391
1580, 365.6604988145941
1581, 393.3277745938751
1582, 417.3382468539994
1583, 429.3664683849481
1584, 423.94478725095996
1585, 397.26455827161453
1586, 359.9351355116935
1587, 309.47684288196274
1588, 238.7072445116346
1589, 168.92867895122595
1590, 102.40398286076743
1591, 47.634502144633416
1592, 9.699455411944882
1593, -17.012892582273253
1594, -32.9633700853401
1595, -16.0503863073136
1596, -7.827911690909787
1597, -21.745785222699396
1598, -11.346449772783899
1599, 0.4754050309372815
1600, 7.353240568930687
1601, 19.651009909682216
1602, -0.2768300985055703
1603, -26.760013604027108
1604, -6.4740482712329595
1605, -3.1683931782106356
1606, -10.726837531306273
1607, -7.782934729794988
1608, -7.363943641915284
1609, -1.9895531235608814
1610, 7.784253550969879
1611, -8.010262755684835
1612, -8.562759353248794
1613, 15.505699680005819
1614, 30.75163137261643
1615, 38.27324144633258
1616, 35.470891336550494
1617, 19.011802599776047
1618, 12.581766276089184
1619, 12.271585620572296
1620, 4.716415000847746
1621, -11.604917446166837
1622, -16.56469588005757
1623, -0.931602772376209
1624, 19.269030053428196
1625, 42.57797095393562
1626, 53.61252209096233
1627, 25.1530289230584
1628, 10.163477057334603
1629, 6.480581218246925
1630, -4.271401348690006
1631, 11.481568955244938
1632, 39.95692486064195
1633, 59.42573545058917
1634, 54.98330576358944
1635, 36.28770391033595
1636, 14.111577213989221
1637, 3.1273219987540415
1638, 14.018157310330935
1639, 26.424466747961787
1640, 15.074697079992347
1641, 28.138195666427237
1642, 42.30239930600533
1643, 39.92275873647691
1644, 33.46265406952011
1645, 32.62659961886834
1646, 34.58225919929009
1647, 26.849310719999266
1648, 9.575327171803792
1649, -17.729976812012637
1650, -48.34567641276203
##END=



